Date,Open,High,Low,Close,Adj Close,Volume
2014-07-07,66.750000,66.919998,65.970001,66.419998,61.380936,136600
2014-07-08,66.260002,66.410004,65.839996,66.239998,61.214596,234000
2014-07-09,66.290001,66.580002,65.820000,66.320000,61.288517,176600
2014-07-10,65.459999,66.400002,65.459999,66.260002,61.233089,163900
2014-07-11,66.160004,66.459999,65.919998,66.349998,61.316250,127000
2014-07-14,66.750000,67.019997,66.290001,66.540001,61.491840,187100
2014-07-15,66.470001,67.029999,66.199997,66.820000,61.750587,186500
2014-07-16,66.949997,67.070000,65.919998,66.349998,61.316250,347500
2014-07-17,65.879997,66.110001,64.949997,65.029999,60.096386,179700
2014-07-18,65.300003,66.169998,64.660004,66.050003,61.039013,378100
2014-07-21,65.680000,65.680000,64.989998,65.400002,60.438309,176100
2014-07-22,64.239998,64.650002,63.430000,63.730000,58.895012,473400
2014-07-23,63.790001,64.050003,63.250000,63.669998,58.839558,406800
2014-07-24,63.549999,64.209999,63.500000,63.790001,58.950462,240000
2014-07-25,63.439999,64.029999,63.240002,63.500000,58.682457,381500
2014-07-28,63.110001,63.189999,62.660000,62.910000,58.394718,353400
2014-07-29,62.869999,63.240002,62.560001,62.630001,58.134804,302400
2014-07-30,62.730000,63.029999,62.020000,62.110001,57.652130,308600
2014-07-31,61.830002,61.830002,60.889999,61.099998,56.714622,258700
2014-08-01,61.070000,61.450001,60.570000,61.130001,56.742470,473500
2014-08-04,61.299999,61.500000,60.669998,61.380001,56.974533,236100
2014-08-05,61.000000,61.520000,60.660000,60.970001,56.593945,199100
2014-08-06,60.790001,62.070000,60.520000,61.520000,57.104488,363800
2014-08-07,61.869999,62.049999,61.299999,61.580002,57.160179,336800
2014-08-08,61.770000,62.419998,61.240002,62.360001,57.884186,188800
2014-08-11,62.680000,63.049999,62.099998,62.160000,57.698540,143500
2014-08-12,62.029999,62.480000,61.770000,62.349998,57.874912,185500
2014-08-13,62.639999,63.150002,62.230000,63.110001,58.580368,219000
2014-08-14,63.220001,63.700001,63.029999,63.139999,58.608208,193000
2014-08-15,63.310001,63.430000,62.880001,63.299999,58.756714,282800
2014-08-18,63.599998,63.720001,63.340000,63.680000,59.109447,154800
2014-08-19,63.799999,64.139999,63.660000,64.129997,59.527153,158600
2014-08-20,63.990002,64.110001,63.650002,63.750000,59.174423,220600
2014-08-21,64.120003,64.389999,63.770000,63.930000,59.341515,240300
2014-08-22,64.040001,64.230003,63.590000,63.619999,59.053749,205300
2014-08-25,64.010002,64.139999,63.380001,63.720001,59.146580,183600
2014-08-26,63.750000,64.230003,63.669998,63.959999,59.369347,135300
2014-08-27,64.059998,64.190002,63.660000,64.000000,59.406483,88100
2014-08-28,63.930000,64.220001,63.650002,64.019997,59.425041,89600
2014-08-29,64.019997,64.209999,63.619999,64.150002,59.545731,119200
2014-09-02,64.379997,64.879997,64.150002,64.540001,59.907719,272300
2014-09-03,64.660004,64.690002,64.019997,64.169998,59.564274,140900
2014-09-04,64.500000,64.949997,63.919998,64.739998,60.093357,235600
2014-09-05,64.860001,65.199997,64.510002,65.199997,60.520351,162500
2014-09-08,65.010002,65.370003,64.370003,64.709999,60.065517,181800
2014-09-09,64.500000,64.500000,63.520000,63.880001,59.295101,260500
2014-09-10,63.869999,63.869999,63.310001,63.540001,58.979492,189000
2014-09-11,63.439999,63.880001,63.240002,63.790001,59.211555,136600
2014-09-12,63.540001,63.740002,62.480000,62.700001,58.199791,209900
2014-09-15,62.880001,62.880001,62.279999,62.759998,58.255478,184900
2014-09-16,62.740002,63.040001,62.410000,62.590000,58.097683,263800
2014-09-17,62.529999,62.639999,61.450001,61.490002,57.076630,342800
2014-09-18,61.950001,62.189999,61.540001,61.599998,57.178741,306400
2014-09-19,61.610001,62.000000,61.139999,61.160000,56.770313,585300
2014-09-22,61.099998,61.349998,60.730000,61.200001,56.807453,295300
2014-09-23,61.110001,61.480000,60.930000,60.939999,56.566109,276900
2014-09-24,60.750000,61.230000,60.599998,61.000000,56.621799,234200
2014-09-25,60.730000,61.009998,60.570000,60.840000,56.473282,379600
2014-09-26,60.880001,61.500000,60.650002,61.380001,56.974533,381500
2014-09-29,60.860001,61.840000,60.700001,61.750000,57.317970,310700
2014-09-30,61.580002,61.580002,60.590000,60.700001,56.343334,329300
2014-10-01,60.400002,60.740002,59.110001,59.259998,55.006687,523900
2014-10-02,59.360001,59.669998,58.910000,59.330002,55.071671,212200
2014-10-03,59.599998,60.209999,59.500000,60.110001,55.795677,281400
2014-10-06,60.250000,60.650002,59.900002,60.230000,55.907059,208000
2014-10-07,60.080002,60.080002,58.919998,58.950001,54.718941,368300
2014-10-08,59.020000,60.020000,58.330002,59.919998,55.619312,265100
2014-10-09,59.889999,60.119999,58.220001,58.560001,54.356934,364700
2014-10-10,58.720001,59.139999,57.439999,57.500000,53.373016,404600
2014-10-13,57.410000,58.119999,56.029999,56.180000,52.147755,552600
2014-10-14,56.560001,56.759998,56.009998,56.389999,52.342682,631600
2014-10-15,55.599998,57.090000,55.590000,56.639999,52.574741,647400
2014-10-16,55.740002,57.779999,55.660000,57.650002,53.512245,608900
2014-10-17,58.299999,59.070000,58.049999,58.700001,54.486889,1066900
2014-10-20,58.709999,60.080002,58.459999,60.040001,55.730705,492600
2014-10-21,60.279999,61.299999,60.279999,61.250000,56.853859,350400
2014-10-22,61.419998,61.849998,60.549999,60.590000,56.241234,277000
2014-10-23,61.180000,62.369999,60.790001,61.779999,57.345821,440900
2014-10-24,61.720001,62.080002,61.480000,61.919998,57.475765,156100
2014-10-27,61.369999,61.369999,60.009998,60.369999,56.037018,397600
2014-10-28,60.790001,61.500000,60.509998,61.250000,56.853859,254300
2014-10-29,61.340000,61.560001,60.500000,61.029999,56.649647,244100
2014-10-30,60.700001,61.849998,60.380001,61.709999,57.280842,335300
2014-10-31,58.360001,62.689999,58.360001,62.240002,57.772812,1044500
2014-11-03,61.730000,62.290001,61.419998,61.730000,57.558346,536000
2014-11-04,61.509998,62.360001,61.340000,62.310001,58.099152,335800
2014-11-05,62.799999,63.689999,62.290001,63.639999,59.339272,445300
2014-11-06,63.590000,64.029999,63.160000,63.799999,59.488457,215800
2014-11-07,63.970001,64.849998,63.860001,64.769997,60.392891,432000
2014-11-10,64.839996,65.570000,64.779999,65.550003,61.120186,326100
2014-11-11,65.500000,65.870003,65.050003,65.260002,60.849796,291800
2014-11-12,64.949997,65.230003,64.760002,65.169998,60.765873,177900
2014-11-13,65.400002,65.750000,64.720001,64.949997,60.560741,119100
2014-11-14,64.910004,65.250000,64.599998,64.830002,60.448853,294300
2014-11-17,64.959999,65.610001,64.809998,65.480003,61.054916,298700
2014-11-18,65.550003,65.809998,64.870003,64.989998,60.598045,384800
2014-11-19,65.000000,65.000000,64.489998,64.830002,60.448853,204600
2014-11-20,64.360001,65.050003,64.360001,64.750000,60.374252,161600
2014-11-21,65.300003,65.410004,64.709999,65.099998,60.700607,216400
2014-11-24,65.209999,65.379997,65.029999,65.339996,60.924385,127600
2014-11-25,65.449997,65.449997,65.019997,65.269997,60.859112,185000
2014-11-26,65.309998,65.430000,64.910004,65.290001,60.877773,159300
2014-11-28,65.400002,65.599998,64.919998,65.250000,60.840477,105000
2014-12-01,64.820000,65.400002,64.529999,65.099998,60.700607,193900
2014-12-02,65.199997,65.889999,65.139999,65.349998,60.933708,257500
2014-12-03,65.540001,66.489998,65.449997,66.430000,61.940731,232200
2014-12-04,66.449997,66.900002,66.050003,66.570000,62.071262,203000
2014-12-05,66.330002,66.709999,66.099998,66.260002,61.782230,233800
2014-12-08,66.190002,66.580002,65.660004,65.879997,61.427891,226400
2014-12-09,65.389999,66.290001,65.199997,66.260002,61.782230,192500
2014-12-10,66.239998,66.239998,65.220001,65.389999,60.971008,174900
2014-12-11,65.830002,66.199997,65.239998,65.680000,61.241413,129900
2014-12-12,65.300003,65.489998,64.589996,64.639999,60.271690,137400
2014-12-15,64.860001,65.029999,63.820000,63.860001,59.544407,163100
2014-12-16,63.759998,64.419998,63.400002,63.820000,59.507107,255600
2014-12-17,64.279999,65.320000,63.580002,65.260002,60.849796,235400
2014-12-18,66.190002,66.779999,65.480003,66.610001,62.108559,225000
2014-12-19,66.650002,67.269997,66.620003,67.129997,62.593414,627400
2014-12-22,67.410004,67.500000,66.879997,67.089996,62.556122,192700
2014-12-23,67.169998,67.620003,66.830002,67.440002,62.882473,245200
2014-12-24,67.040001,67.839996,67.040001,67.559998,62.994354,90400
2014-12-26,67.870003,68.169998,67.300003,67.860001,63.274097,96400
2014-12-29,67.589996,68.620003,67.589996,68.379997,63.758934,111700
2014-12-30,68.330002,68.669998,67.910004,68.099998,63.497868,98600
2014-12-31,68.089996,68.370003,66.769997,66.839996,62.323017,244000
2015-01-02,67.059998,67.680000,65.910004,66.650002,62.145866,224400
2015-01-05,66.199997,66.629997,64.000000,64.599998,60.234390,591700
2015-01-06,64.849998,65.000000,63.480000,63.910000,59.591022,289200
2015-01-07,64.510002,64.620003,63.869999,64.279999,59.936020,261400
2015-01-08,64.769997,66.139999,64.769997,66.110001,61.642345,305300
2015-01-09,66.430000,66.699997,65.419998,65.470001,61.045597,225500
2015-01-12,65.489998,66.139999,64.949997,65.370003,60.952354,215000
2015-01-13,65.790001,66.529999,64.260002,65.169998,60.765873,276200
2015-01-14,64.279999,64.980003,63.900002,64.599998,60.234390,222600
2015-01-15,64.660004,65.019997,63.450001,63.779999,59.469810,302100
2015-01-16,63.730000,64.680000,63.369999,64.470001,60.113182,153200
2015-01-20,64.300003,64.970001,63.669998,64.209999,59.870754,198600
2015-01-21,63.820000,64.709999,63.650002,64.339996,59.991959,166400
2015-01-22,64.620003,65.070000,63.830002,64.709999,60.336956,407500
2015-01-23,64.739998,64.910004,63.750000,63.759998,59.451164,237400
2015-01-26,63.580002,64.010002,63.180000,63.770000,59.722755,292000
2015-01-27,63.060001,63.549999,62.599998,62.889999,58.898613,509500
2015-01-28,63.169998,63.580002,61.889999,62.090000,58.149372,365100
2015-01-29,62.389999,63.230000,61.389999,63.000000,59.001625,251300
2015-01-30,62.580002,63.349998,62.180000,63.110001,59.104652,383400
2015-02-02,63.230000,63.849998,62.709999,63.540001,59.507359,525700
2015-02-03,63.660000,64.419998,63.310001,63.470001,59.441799,335200
2015-02-04,63.259998,63.970001,62.950001,63.220001,59.207664,406900
2015-02-05,63.740002,64.339996,63.400002,63.810001,59.760223,389900
2015-02-06,64.089996,66.599998,63.759998,64.330002,60.247215,928000
2015-02-09,64.040001,64.430000,63.180000,63.650002,59.610367,622300
2015-02-10,64.040001,64.309998,63.410000,63.730000,59.685287,531600
2015-02-11,63.500000,64.050003,63.380001,63.680000,59.638466,455300
2015-02-12,63.950001,64.550003,63.669998,64.070000,60.003716,442700
2015-02-13,64.110001,64.739998,63.889999,64.559998,60.462612,135600
2015-02-17,64.129997,65.690002,64.129997,65.250000,61.108829,288300
2015-02-18,64.989998,65.830002,64.989998,65.830002,61.652031,339500
2015-02-19,65.410004,66.269997,65.139999,65.839996,61.661369,221900
2015-02-20,65.940002,66.260002,65.139999,66.169998,61.970440,271400
2015-02-23,65.919998,66.400002,65.570000,66.269997,62.064079,168000
2015-02-24,66.139999,66.400002,65.680000,66.300003,62.092201,239000
2015-02-25,66.180000,66.379997,65.449997,65.849998,61.670750,314400
2015-02-26,65.849998,66.349998,65.739998,66.260002,62.054741,169000
2015-02-27,66.169998,66.379997,65.559998,65.870003,61.689476,264700
2015-03-02,65.870003,66.559998,65.529999,66.500000,62.279499,251200
2015-03-03,66.080002,66.449997,65.599998,65.889999,61.708210,186900
2015-03-04,65.919998,66.029999,64.870003,65.620003,61.455345,230200
2015-03-05,65.559998,65.919998,64.629997,65.029999,60.902790,254200
2015-03-06,64.800003,65.010002,63.919998,64.269997,60.191017,271200
2015-03-09,64.129997,64.699997,63.910000,64.180000,60.106731,258900
2015-03-10,63.630001,64.019997,63.400002,63.750000,59.704021,328200
2015-03-11,63.750000,63.820000,62.709999,63.360001,59.338783,478200
2015-03-12,63.709999,64.160004,63.230000,63.560001,59.526081,312400
2015-03-13,63.430000,63.730000,62.860001,63.099998,59.095291,236900
2015-03-16,63.430000,64.000000,63.320000,63.790001,59.741486,193800
2015-03-17,63.650002,63.930000,62.570000,63.610001,59.572914,335600
2015-03-18,63.490002,64.540001,63.230000,63.950001,59.891338,459700
2015-03-19,63.730000,64.129997,63.189999,63.639999,59.601006,296600
2015-03-20,63.730000,63.939999,63.209999,63.230000,59.217026,608400
2015-03-23,63.349998,63.900002,63.040001,63.389999,59.366871,331000
2015-03-24,63.259998,63.790001,63.139999,63.500000,59.469891,477100
2015-03-25,63.430000,63.910000,62.869999,62.980000,58.982883,346000
2015-03-26,62.820000,63.169998,62.709999,62.980000,58.982883,254200
2015-03-27,63.029999,63.320000,62.770000,63.180000,59.170204,163000
2015-03-30,63.410000,63.980000,63.259998,63.700001,59.657200,263400
2015-03-31,63.259998,63.799999,63.209999,63.520000,59.488617,349600
2015-04-01,63.580002,63.830002,62.820000,63.650002,59.610367,403300
2015-04-02,63.509998,63.840000,62.959999,63.150002,59.142109,346700
2015-04-06,62.919998,63.430000,62.759998,63.380001,59.357506,393100
2015-04-07,63.299999,63.500000,62.990002,63.110001,59.104652,157400
2015-04-08,63.119999,63.500000,62.849998,63.419998,59.394966,184600
2015-04-09,63.290001,63.459999,62.860001,63.330002,59.310684,191300
2015-04-10,63.439999,63.570000,63.180000,63.490002,59.460533,316000
2015-04-13,63.049999,63.669998,63.009998,63.430000,59.404343,343300
2015-04-14,63.470001,63.730000,63.139999,63.299999,59.282581,320900
2015-04-15,63.580002,63.599998,62.910000,63.000000,59.001625,247400
2015-04-16,63.320000,63.520000,62.830002,63.009998,59.010983,380300
2015-04-17,62.720001,62.990002,61.980000,62.840000,58.851780,310900
2015-04-20,63.070000,63.259998,62.730000,62.810001,58.823689,300100
2015-04-21,63.119999,63.279999,62.500000,62.720001,58.739399,235900
2015-04-22,62.680000,63.470001,62.439999,62.880001,58.889240,169200
2015-04-23,62.700001,63.110001,62.700001,62.939999,58.945431,289900
2015-04-24,63.150002,63.439999,62.639999,63.290001,59.273220,282600
2015-04-27,63.380001,63.590000,62.549999,62.790001,59.066280,491400
2015-04-28,62.720001,63.049999,62.450001,62.779999,59.056862,254100
2015-04-29,62.639999,62.740002,62.119999,62.549999,58.840496,256600
2015-04-30,62.150002,62.790001,62.000000,62.070000,58.388966,407400
2015-05-01,64.250000,64.930000,63.009998,64.050003,60.251553,1366000
2015-05-04,64.339996,64.980003,63.900002,63.959999,60.166878,922000
2015-05-05,63.740002,64.080002,62.869999,63.000000,59.263821,659200
2015-05-06,63.099998,63.340000,62.610001,63.099998,59.357891,640900
2015-05-07,63.020000,63.130001,62.720001,63.000000,59.263821,699400
2015-05-08,63.700001,63.700001,62.950001,63.160000,59.414326,522600
2015-05-11,62.970001,63.209999,62.900002,63.060001,59.320259,501400
2015-05-12,62.880001,63.709999,62.380001,63.509998,59.743568,435800
2015-05-13,63.970001,64.500000,63.970001,64.330002,60.514942,601300
2015-05-14,64.629997,65.419998,64.629997,65.209999,61.342751,712700
2015-05-15,65.209999,65.389999,64.879997,65.199997,61.333336,213600
2015-05-18,65.120003,65.839996,64.959999,65.660004,61.766068,220100
2015-05-19,65.730003,66.309998,65.629997,66.089996,62.170559,314400
2015-05-20,66.089996,66.150002,65.290001,65.459999,61.577927,170600
2015-05-21,65.239998,65.260002,64.550003,64.919998,61.069958,425200
2015-05-22,64.750000,65.010002,64.330002,64.500000,60.674858,313600
2015-05-26,64.480003,64.639999,63.680000,63.970001,60.176285,286600
2015-05-27,64.019997,64.550003,63.840000,64.480003,60.656044,258800
2015-05-28,64.400002,64.699997,64.080002,64.489998,60.665455,274100
2015-05-29,64.639999,64.849998,63.650002,63.770000,59.988144,227400
2015-06-01,64.019997,64.269997,63.310001,63.900002,60.110439,406200
2015-06-02,63.830002,64.629997,63.470001,63.950001,60.157478,302500
2015-06-03,64.250000,64.559998,63.950001,64.139999,60.336208,532800
2015-06-04,63.750000,64.250000,63.529999,63.919998,60.129242,189400
2015-06-05,63.770000,64.320000,63.450001,64.279999,60.467911,345400
2015-06-08,64.239998,64.529999,63.560001,63.750000,59.969334,333400
2015-06-09,63.750000,64.330002,63.580002,64.150002,60.345619,367100
2015-06-10,64.300003,64.559998,64.050003,64.239998,60.430271,264900
2015-06-11,64.230003,64.820000,64.209999,64.779999,60.938251,224700
2015-06-12,64.500000,64.750000,64.139999,64.580002,60.750114,247700
2015-06-15,64.059998,64.279999,63.619999,64.269997,60.458496,329600
2015-06-16,64.309998,65.779999,64.000000,64.900002,61.051140,579000
2015-06-17,64.879997,65.000000,64.129997,64.809998,60.966469,306600
2015-06-18,64.949997,65.339996,64.489998,65.269997,61.399197,210400
2015-06-19,65.300003,65.830002,65.040001,65.290001,61.418018,462200
2015-06-22,65.639999,65.639999,65.139999,65.500000,61.615547,236100
2015-06-23,65.570000,65.629997,64.809998,65.180000,61.314537,381000
2015-06-24,65.120003,65.309998,64.370003,64.449997,60.627823,189100
2015-06-25,64.680000,65.089996,64.029999,64.279999,60.467911,325000
2015-06-26,64.400002,64.629997,64.059998,64.480003,60.656044,301500
2015-06-29,64.150002,64.559998,63.680000,63.740002,59.959938,262500
2015-06-30,64.070000,64.300003,63.619999,63.770000,59.988144,478200
2015-07-01,64.139999,64.379997,63.740002,63.849998,60.063408,434100
2015-07-02,64.120003,64.260002,63.560001,63.790001,60.006962,198500
2015-07-06,63.450001,63.990002,63.169998,63.840000,60.054001,229700
2015-07-07,63.740002,64.360001,63.439999,64.300003,60.486721,262700
2015-07-08,63.889999,64.389999,63.250000,63.439999,59.677723,350800
2015-07-09,63.889999,64.040001,63.250000,63.410000,59.649502,360600
2015-07-10,63.959999,64.449997,63.509998,63.680000,59.903492,173500
2015-07-13,63.779999,64.349998,63.779999,64.260002,60.449093,262000
2015-07-14,64.019997,64.290001,63.790001,63.939999,60.148064,304000
2015-07-15,63.880001,64.279999,63.630001,63.939999,60.148064,269400
2015-07-16,64.220001,64.550003,64.120003,64.300003,60.486721,140800
2015-07-17,64.150002,64.330002,63.759998,63.930000,60.138660,216300
2015-07-20,63.820000,64.080002,63.610001,63.959999,60.166878,200800
2015-07-21,63.759998,64.089996,62.950001,63.080002,59.339069,213600
2015-07-22,62.970001,63.490002,62.950001,63.000000,59.263821,316000
2015-07-23,63.160000,63.259998,62.410000,62.459999,58.755836,156600
2015-07-24,62.340000,62.610001,61.500000,61.750000,58.087944,304100
2015-07-27,61.220001,61.570000,60.730000,61.380001,58.002895,254900
2015-07-28,61.619999,62.349998,61.270000,62.299999,58.872276,243700
2015-07-29,64.000000,67.389999,63.509998,66.349998,62.699459,758600
2015-07-30,66.320000,67.930000,66.050003,67.500000,63.786171,1281300
2015-07-31,67.790001,68.709999,67.500000,67.790001,64.060219,623300
2015-08-03,67.779999,68.059998,66.540001,67.279999,63.578281,364200
2015-08-04,67.400002,68.190002,67.230003,67.930000,64.192535,325400
2015-08-05,68.150002,69.339996,68.099998,68.809998,65.024094,249400
2015-08-06,68.779999,69.110001,68.190002,68.370003,64.608315,243300
2015-08-07,68.279999,68.900002,67.930000,68.790001,65.005211,240600
2015-08-10,69.010002,70.099998,68.839996,69.919998,66.073029,181500
2015-08-11,69.400002,69.949997,68.599998,69.180000,65.373741,385900
2015-08-12,68.629997,69.620003,67.930000,68.779999,64.995750,212200
2015-08-13,68.510002,69.580002,68.300003,69.029999,65.232002,241900
2015-08-14,69.000000,69.930000,68.849998,69.870003,66.025780,175700
2015-08-17,69.620003,70.339996,69.150002,70.089996,66.233665,161600
2015-08-18,69.800003,70.279999,69.459999,69.830002,65.987976,148000
2015-08-19,69.519997,69.720001,68.550003,69.110001,65.307602,206200
2015-08-20,68.639999,69.089996,68.000000,68.070000,64.324814,236500
2015-08-21,67.120003,68.120003,67.040001,67.610001,63.890110,443600
2015-08-24,64.800003,67.620003,64.660004,66.150002,62.510464,508300
2015-08-25,67.879997,68.089996,65.470001,65.540001,61.934025,317800
2015-08-26,66.699997,66.769997,65.410004,66.709999,63.039631,301200
2015-08-27,67.209999,67.760002,66.430000,67.660004,63.937370,280700
2015-08-28,67.220001,67.760002,66.940002,67.709999,63.984631,186200
2015-08-31,67.389999,67.790001,67.080002,67.360001,63.653885,242700
2015-09-01,66.070000,66.919998,65.779999,65.800003,62.179718,357000
2015-09-02,66.550003,66.949997,65.500000,66.480003,62.822296,248300
2015-09-03,66.699997,67.459999,66.639999,67.379997,63.672783,159400
2015-09-04,66.699997,67.459999,66.559998,67.269997,63.568840,244300
2015-09-08,67.750000,68.360001,67.279999,68.019997,64.277557,370200
2015-09-09,68.019997,68.620003,67.110001,67.779999,64.050774,432300
2015-09-10,67.209999,67.970001,66.580002,66.910004,63.228645,366100
2015-09-11,66.680000,67.419998,66.080002,67.400002,63.691696,266700
2015-09-14,67.279999,67.279999,66.709999,66.720001,63.049091,175300
2015-09-15,67.540001,68.440002,67.370003,68.410004,64.646126,523700
2015-09-16,68.309998,69.160004,67.879997,69.040001,65.241440,213500
2015-09-17,69.150002,69.379997,68.360001,68.419998,64.655548,178500
2015-09-18,67.790001,68.290001,67.000000,67.150002,63.455433,448900
2015-09-21,67.480003,68.339996,67.139999,67.629997,63.909019,193600
2015-09-22,66.879997,67.419998,66.660004,66.739998,63.067978,171700
2015-09-23,66.919998,67.059998,65.839996,66.680000,63.011284,359100
2015-09-24,66.269997,66.269997,65.160004,65.599998,61.990719,275300
2015-09-25,65.690002,65.690002,64.839996,65.529999,61.924568,412100
2015-09-28,65.139999,65.250000,64.099998,64.150002,60.620495,218700
2015-09-29,64.139999,65.000000,63.619999,64.940002,61.367023,445500
2015-09-30,65.510002,66.279999,65.309998,65.959999,62.330921,311400
2015-10-01,65.949997,67.430000,65.790001,67.239998,63.540478,569600
2015-10-02,66.639999,68.000000,66.160004,67.980003,64.239777,216000
2015-10-05,68.430000,69.029999,68.050003,68.410004,64.646126,271600
2015-10-06,68.529999,68.669998,67.610001,67.680000,63.956268,306300
2015-10-07,68.010002,68.730003,67.720001,68.680000,64.901260,222100
2015-10-08,68.760002,69.769997,68.500000,69.629997,65.798988,185000
2015-10-09,69.690002,70.699997,69.690002,70.260002,66.394325,252100
2015-10-12,70.309998,70.639999,69.919998,70.570000,66.687263,235100
2015-10-13,70.400002,70.879997,69.930000,70.160004,66.299828,257900
2015-10-14,70.110001,70.720001,69.570000,69.669998,65.836777,131000
2015-10-15,69.879997,70.110001,68.949997,69.690002,65.855675,236300
2015-10-16,69.690002,69.910004,69.260002,69.839996,65.997429,212500
2015-10-19,69.610001,70.040001,69.540001,69.989998,66.139168,186200
2015-10-20,69.910004,70.820000,69.910004,70.489998,66.611664,220400
2015-10-21,70.529999,70.800003,69.800003,69.870003,66.025780,194700
2015-10-22,70.279999,71.360001,70.209999,71.290001,67.367661,268300
2015-10-23,71.959999,72.169998,71.059998,71.400002,67.471603,256900
2015-10-26,71.300003,71.680000,71.050003,71.300003,67.377106,244900
2015-10-27,71.250000,71.320000,69.629997,70.949997,67.046364,281900
2015-10-28,71.059998,71.849998,70.720001,71.849998,67.896843,319200
2015-10-29,70.230003,72.349998,70.230003,72.339996,68.359894,391400
2015-10-30,71.620003,75.250000,71.620003,73.559998,69.512749,948300
2015-11-02,74.769997,75.879997,73.839996,75.720001,71.846939,432400
2015-11-03,75.779999,75.959999,74.669998,74.760002,70.936043,292000
2015-11-04,74.750000,74.750000,73.050003,73.230003,69.484299,423800
2015-11-05,73.330002,73.790001,72.989998,73.449997,69.693031,225300
2015-11-06,73.480003,73.480003,72.680000,73.260002,69.512772,288400
2015-11-09,73.050003,73.419998,71.820000,72.449997,68.744202,261900
2015-11-10,72.419998,73.040001,71.879997,73.040001,69.304008,293800
2015-11-11,73.320000,73.620003,72.910004,73.059998,69.322998,153800
2015-11-12,72.500000,72.910004,70.769997,70.800003,67.178604,304800
2015-11-13,70.680000,71.699997,70.570000,71.519997,67.861771,539600
2015-11-16,71.870003,72.180000,71.150002,72.099998,68.412086,196700
2015-11-17,72.290001,72.879997,71.790001,71.970001,68.288742,172600
2015-11-18,72.220001,73.510002,71.919998,73.430000,69.674072,181300
2015-11-19,73.320000,73.779999,72.750000,73.680000,69.911263,138600
2015-11-20,73.940002,74.550003,73.720001,74.290001,70.490074,157300
2015-11-23,74.239998,74.519997,73.699997,73.849998,70.072586,239000
2015-11-24,73.410004,74.720001,73.139999,74.279999,70.480576,226100
2015-11-25,74.430000,75.559998,74.220001,74.870003,71.040413,265300
2015-11-27,74.800003,75.360001,74.300003,75.010002,71.173256,65200
2015-11-30,75.169998,75.489998,74.070000,74.480003,70.670341,278700
2015-12-01,74.699997,75.279999,74.570000,74.970001,71.135300,125300
2015-12-02,74.800003,75.269997,73.730003,73.930000,70.148483,156900
2015-12-03,74.309998,74.589996,72.919998,73.459999,69.702538,182700
2015-12-04,73.500000,74.519997,73.500000,74.349998,70.546997,89500
2015-12-07,74.029999,74.599998,73.629997,74.220001,70.423660,242800
2015-12-08,73.500000,74.059998,73.129997,73.599998,69.835358,225000
2015-12-09,73.269997,74.440002,72.849998,73.080002,69.341980,235500
2015-12-10,73.239998,73.699997,72.730003,73.430000,69.674072,175500
2015-12-11,72.720001,73.559998,72.239998,72.860001,69.133232,169300
2015-12-14,72.769997,73.300003,72.400002,72.550003,68.839081,246800
2015-12-15,73.000000,73.410004,72.470001,73.059998,69.322998,185300
2015-12-16,73.360001,73.809998,72.589996,73.449997,69.693031,191200
2015-12-17,73.580002,73.949997,72.260002,72.260002,68.563911,160400
2015-12-18,72.260002,72.260002,71.089996,71.110001,67.472748,809900
2015-12-21,71.480003,71.980003,71.209999,71.660004,67.994598,224100
2015-12-22,71.839996,72.510002,71.400002,72.309998,68.611351,122300
2015-12-23,72.839996,73.519997,72.449997,73.459999,69.702538,216500
2015-12-24,73.230003,73.639999,72.760002,73.300003,69.550720,78800
2015-12-28,72.980003,73.940002,72.910004,73.709999,69.939735,137500
2015-12-29,74.000000,74.470001,73.599998,74.040001,70.252869,80800
2015-12-30,73.900002,74.320000,73.000000,73.620003,69.854347,100800
2015-12-31,73.269997,73.940002,72.620003,72.650002,68.933960,157800
2016-01-04,72.000000,72.209999,71.230003,72.080002,68.393127,288300
2016-01-05,72.080002,72.080002,71.010002,71.669998,68.004089,323800
2016-01-06,70.699997,71.589996,70.360001,71.180000,67.539162,389900
2016-01-07,70.019997,70.709999,69.599998,69.760002,66.191772,321200
2016-01-08,69.959999,70.629997,69.669998,69.879997,66.305649,565000
2016-01-11,69.930000,70.360001,69.070000,69.820000,66.248711,312000
2016-01-12,70.309998,70.919998,69.330002,69.839996,66.267693,286700
2016-01-13,70.129997,70.830002,68.889999,68.910004,65.385254,379900
2016-01-14,69.099998,69.180000,68.129997,68.750000,65.233437,439100
2016-01-15,67.519997,68.260002,67.000000,68.070000,64.588226,344200
2016-01-19,68.849998,68.849998,67.300003,68.120003,64.635681,221800
2016-01-20,67.349998,68.410004,66.330002,67.830002,64.360504,252300
2016-01-21,67.900002,68.339996,66.690002,66.699997,63.288307,323100
2016-01-22,67.480003,68.320000,67.190002,68.250000,64.759018,252600
2016-01-25,67.669998,67.760002,66.639999,66.860001,63.720211,330300
2016-01-26,67.639999,70.620003,67.570000,70.489998,67.179733,582200
2016-01-27,70.239998,71.650002,69.720001,70.250000,66.951012,491100
2016-01-28,70.820000,71.320000,70.410004,70.669998,67.351295,420800
2016-01-29,70.860001,72.910004,70.860001,72.900002,69.476570,796100
2016-02-01,72.290001,72.690002,71.589996,72.309998,68.914268,284400
2016-02-02,71.480003,71.790001,70.800003,71.320000,67.970772,325700
2016-02-03,71.809998,73.169998,70.580002,73.150002,69.714828,433000
2016-02-04,73.010002,73.720001,71.879997,72.239998,68.847557,365600
2016-02-05,72.980003,74.660004,70.480003,71.120003,67.780151,281400
2016-02-08,70.559998,73.059998,69.879997,73.029999,69.600471,521700
2016-02-09,72.489998,75.269997,72.300003,74.410004,70.915657,581100
2016-02-10,74.680000,75.529999,73.449997,74.190002,70.705994,362700
2016-02-11,73.190002,75.019997,73.190002,74.320000,70.829880,526900
2016-02-12,74.820000,75.650002,73.699997,75.300003,71.763870,306400
2016-02-16,76.050003,76.190002,73.470001,73.949997,70.477272,386700
2016-02-17,74.250000,74.669998,73.169998,73.370003,69.924492,374100
2016-02-18,73.500000,73.750000,72.980003,73.300003,69.857788,260400
2016-02-19,73.300003,73.760002,71.559998,72.879997,69.457504,700700
2016-02-22,73.470001,73.879997,72.440002,72.800003,69.381271,387400
2016-02-23,72.849998,73.019997,72.050003,72.870003,69.447975,264900
2016-02-24,72.419998,74.120003,72.220001,73.910004,70.439133,220200
2016-02-25,74.000000,74.389999,73.480003,74.339996,70.848938,208700
2016-02-26,74.779999,74.949997,73.309998,73.330002,69.886375,159400
2016-02-29,73.500000,74.379997,72.980003,73.709999,70.248528,211600
2016-03-01,74.040001,75.080002,73.750000,74.500000,71.001427,233000
2016-03-02,74.389999,74.830002,73.820000,74.410004,70.915657,154800
2016-03-03,74.349998,75.250000,73.809998,75.199997,71.668556,354300
2016-03-04,75.199997,76.099998,75.139999,76.000000,72.431000,299600
2016-03-07,75.870003,76.419998,75.089996,75.720001,72.164146,216100
2016-03-08,75.720001,76.129997,75.120003,75.790001,72.230850,236800
2016-03-09,75.949997,76.529999,75.099998,75.849998,72.288040,313200
2016-03-10,76.279999,76.809998,75.129997,75.370003,71.830566,266300
2016-03-11,75.510002,76.199997,75.510002,75.779999,72.221321,239200
2016-03-14,75.779999,76.199997,74.879997,75.239998,71.706673,286000
2016-03-15,74.779999,76.500000,74.040001,76.160004,72.583488,365100
2016-03-16,75.779999,76.830002,75.529999,76.550003,72.955162,188200
2016-03-17,76.839996,77.760002,76.510002,77.260002,73.631821,304300
2016-03-18,76.949997,77.580002,76.169998,76.889999,73.279182,611700
2016-03-21,76.989998,77.989998,76.820000,77.379997,73.746170,212000
2016-03-22,77.000000,78.419998,76.639999,78.070000,74.403786,241500
2016-03-23,77.959999,78.889999,76.989998,78.139999,74.470497,253200
2016-03-24,77.930000,77.989998,76.860001,77.389999,73.755722,207600
2016-03-28,77.680000,78.370003,77.449997,78.309998,74.632507,320300
2016-03-29,77.940002,78.709999,77.379997,78.510002,74.823120,624100
2016-03-30,78.779999,79.040001,78.059998,78.730003,75.032776,294200
2016-03-31,78.830002,79.019997,78.199997,78.410004,74.727821,373200
2016-04-01,78.029999,79.160004,77.820000,79.089996,75.375877,193900
2016-04-04,79.230003,79.669998,78.709999,78.910004,75.204346,177000
2016-04-05,78.320000,78.779999,77.500000,77.739998,74.089279,218700
2016-04-06,77.739998,78.190002,76.660004,77.980003,74.318008,250300
2016-04-07,77.639999,77.639999,76.860001,77.349998,73.717598,219100
2016-04-08,77.849998,77.849998,77.040001,77.360001,73.727112,178600
2016-04-11,77.970001,78.169998,77.160004,77.360001,73.727112,171700
2016-04-12,77.470001,77.699997,76.970001,77.589996,73.946320,201000
2016-04-13,78.029999,78.230003,76.870003,78.190002,74.518143,172400
2016-04-14,78.360001,78.570000,77.980003,78.449997,74.765915,211900
2016-04-15,78.419998,79.300003,78.160004,79.250000,75.528374,246900
2016-04-18,79.000000,79.660004,78.930000,79.629997,75.890518,221100
2016-04-19,79.900002,80.320000,79.260002,79.449997,75.718964,304700
2016-04-20,79.720001,79.930000,79.160004,79.769997,76.023949,188500
2016-04-21,79.610001,80.029999,78.430000,78.580002,74.889839,218600
2016-04-22,78.620003,79.790001,78.620003,79.680000,75.938179,238600
2016-04-25,78.940002,79.419998,78.750000,79.019997,75.593781,266800
2016-04-26,79.320000,80.000000,78.739998,79.930000,76.464325,234400
2016-04-27,79.889999,80.360001,79.540001,79.959999,76.493019,303200
2016-04-28,79.750000,80.320000,79.000000,79.290001,75.852089,575500
2016-04-29,77.220001,77.959999,75.709999,76.000000,72.704735,777800
2016-05-02,75.779999,77.330002,75.650002,76.849998,73.517876,478800
2016-05-03,76.389999,76.500000,75.599998,75.750000,72.465553,836200
2016-05-04,75.250000,75.900002,75.010002,75.559998,72.283806,574200
2016-05-05,75.540001,76.480003,75.120003,76.059998,72.762131,307100
2016-05-06,76.000000,76.550003,75.720001,76.279999,72.972595,222400
2016-05-09,76.169998,76.820000,75.660004,76.550003,73.230881,365700
2016-05-10,76.730003,77.300003,76.309998,77.080002,73.737892,196600
2016-05-11,77.070000,77.669998,76.680000,76.830002,73.498741,251800
2016-05-12,77.320000,77.980003,77.080002,77.629997,74.264046,219900
2016-05-13,77.339996,77.339996,76.510002,76.970001,73.632668,202900
2016-05-16,77.080002,77.790001,76.629997,77.400002,74.044014,169500
2016-05-17,77.260002,77.419998,75.239998,75.400002,72.130745,446800
2016-05-18,75.120003,76.089996,74.830002,75.250000,71.987236,337400
2016-05-19,74.760002,75.480003,74.160004,74.849998,71.604591,253100
2016-05-20,75.309998,75.779999,74.970001,75.330002,72.063782,301700
2016-05-23,75.489998,75.629997,74.730003,74.790001,71.547203,220500
2016-05-24,75.239998,76.559998,75.150002,76.379997,73.068245,257900
2016-05-25,76.349998,76.860001,76.080002,76.349998,73.039536,173400
2016-05-26,76.519997,76.760002,75.959999,76.430000,73.116089,140300
2016-05-27,76.519997,77.190002,76.180000,77.139999,73.795288,246300
2016-05-31,77.220001,77.540001,76.830002,77.260002,73.910103,267700
2016-06-01,76.860001,77.209999,76.070000,77.209999,73.862267,194600
2016-06-02,77.150002,77.349998,76.790001,77.349998,73.996193,222600
2016-06-03,77.570000,77.790001,76.940002,77.199997,73.852684,145100
2016-06-06,77.309998,78.029999,76.790001,77.089996,73.747475,184800
2016-06-07,77.029999,77.910004,77.029999,77.489998,74.130112,170000
2016-06-08,77.589996,78.550003,77.120003,77.720001,74.350151,128100
2016-06-09,77.400002,77.870003,77.180000,77.790001,74.417122,123400
2016-06-10,77.400002,78.199997,77.400002,78.199997,74.809349,274700
2016-06-13,77.750000,78.080002,76.620003,76.779999,73.450897,261800
2016-06-14,76.830002,76.959999,76.099998,76.440002,73.125664,246100
2016-06-15,76.500000,76.959999,76.059998,76.320000,73.010841,213300
2016-06-16,76.059998,76.940002,75.660004,76.500000,73.183044,285400
2016-06-17,76.220001,76.599998,75.790001,76.349998,73.039536,351300
2016-06-20,77.180000,77.980003,77.180000,77.620003,74.254494,140800
2016-06-21,77.620003,78.220001,77.470001,77.680000,74.311890,213400
2016-06-22,77.910004,78.309998,77.620003,78.309998,74.914566,162800
2016-06-23,79.080002,80.139999,79.080002,80.139999,76.665215,368500
2016-06-24,77.199997,78.099998,76.540001,76.750000,73.422218,461600
2016-06-27,75.930000,75.970001,74.269997,74.599998,71.365417,327800
2016-06-28,74.900002,75.690002,74.529999,75.690002,72.408157,216300
2016-06-29,76.550003,76.949997,75.949997,76.720001,73.393517,198000
2016-06-30,76.959999,79.150002,76.760002,79.129997,75.699005,395900
2016-07-01,78.989998,79.730003,78.500000,79.169998,75.737267,169300
2016-07-05,78.849998,79.099998,77.800003,78.720001,75.306793,207000
2016-07-06,78.660004,78.820000,77.970001,78.739998,75.325928,192300
2016-07-07,78.889999,79.330002,78.279999,78.489998,75.086754,155400
2016-07-08,79.269997,79.849998,79.099998,79.790001,76.330391,132300
2016-07-11,80.080002,80.470001,79.879997,80.199997,76.722618,144500
2016-07-12,80.750000,81.169998,80.360001,80.410004,76.923508,143800
2016-07-13,80.769997,80.919998,80.080002,80.230003,76.751328,188000
2016-07-14,80.800003,81.000000,79.860001,80.190002,76.713051,134100
2016-07-15,80.110001,80.629997,79.919998,79.919998,76.454758,164500
2016-07-18,79.919998,80.540001,79.580002,79.910004,76.445198,93400
2016-07-19,79.860001,80.089996,79.220001,79.620003,76.167770,87100
2016-07-20,79.559998,80.720001,79.559998,80.300003,76.818291,191200
2016-07-21,80.059998,80.570000,79.730003,79.940002,76.473892,132500
2016-07-22,79.919998,80.790001,79.910004,80.459999,76.971344,140900
2016-07-25,80.040001,80.400002,79.800003,79.949997,76.769707,235000
2016-07-26,79.879997,80.720001,79.879997,80.300003,77.105782,185200
2016-07-27,80.739998,80.739998,79.279999,79.720001,76.548836,321300
2016-07-28,79.709999,79.989998,78.970001,79.379997,76.222359,239100
2016-07-29,79.919998,81.500000,77.110001,78.180000,75.070114,730500
2016-08-01,78.139999,78.139999,77.000000,77.339996,74.263504,302600
2016-08-02,77.230003,77.230003,75.940002,76.610001,73.562561,406600
2016-08-03,76.709999,76.970001,76.250000,76.620003,73.572166,213500
2016-08-04,76.739998,77.489998,76.540001,76.779999,73.725792,171800
2016-08-05,77.300003,77.320000,76.449997,76.589996,73.543350,217700
2016-08-08,76.709999,77.589996,75.989998,76.169998,73.140053,185000
2016-08-09,76.260002,76.599998,75.720001,75.980003,72.957634,153000
2016-08-10,76.070000,76.330002,75.839996,76.220001,73.188080,133000
2016-08-11,76.580002,76.860001,75.870003,76.099998,73.072830,193300
2016-08-12,75.989998,76.099998,75.349998,75.580002,72.573540,99200
2016-08-15,75.870003,76.080002,75.480003,75.500000,72.496712,103000
2016-08-16,75.589996,75.639999,75.080002,75.160004,72.170235,186000
2016-08-17,75.220001,75.820000,75.010002,75.790001,72.775177,179400
2016-08-18,75.800003,76.830002,75.620003,76.830002,73.773811,220900
2016-08-19,76.459999,76.989998,76.239998,76.779999,73.725792,209400
2016-08-22,76.769997,77.220001,76.400002,77.099998,74.033066,144600
2016-08-23,77.410004,77.930000,77.269997,77.339996,74.263504,312400
2016-08-24,77.220001,77.739998,77.220001,77.580002,74.493980,185900
2016-08-25,77.430000,78.540001,77.430000,78.070000,74.964493,219500
2016-08-26,78.050003,79.070000,78.050003,78.470001,75.348564,376200
2016-08-29,78.500000,79.059998,78.500000,78.779999,75.646248,163400
2016-08-30,78.779999,79.120003,78.589996,78.690002,75.559822,198900
2016-08-31,78.540001,78.790001,77.959999,77.980003,74.878059,279700
2016-09-01,78.120003,78.300003,77.489998,77.970001,74.868469,209800
2016-09-02,78.470001,79.180000,78.099998,79.160004,76.011131,253000
2016-09-06,79.440002,79.809998,78.919998,79.459999,76.299187,237300
2016-09-07,79.180000,80.370003,79.180000,80.290001,77.096169,316100
2016-09-08,80.519997,80.550003,79.169998,79.209999,76.059135,281300
2016-09-09,78.900002,78.900002,77.430000,77.459999,74.378746,327000
2016-09-12,77.000000,78.559998,77.000000,78.510002,75.386978,182000
2016-09-13,78.080002,78.370003,77.139999,77.540001,74.455566,246800
2016-09-14,77.489998,77.760002,77.059998,77.370003,74.292343,150000
2016-09-15,77.300003,77.989998,77.260002,77.900002,74.801247,162600
2016-09-16,77.360001,78.010002,77.360001,77.599998,74.513184,310300
2016-09-19,77.900002,78.800003,77.889999,78.610001,75.483009,233200
2016-09-20,79.099998,79.410004,78.699997,78.720001,75.588631,281000
2016-09-21,78.809998,78.809998,77.839996,78.419998,75.300552,413200
2016-09-22,79.059998,79.510002,78.360001,79.459999,76.299187,281200
2016-09-23,79.169998,79.489998,78.610001,78.790001,75.655838,157100
2016-09-26,78.690002,78.970001,78.029999,78.059998,74.954880,289000
2016-09-27,77.360001,78.139999,77.360001,77.739998,74.647614,631400
2016-09-28,78.360001,78.650002,77.610001,78.610001,75.483009,211900
2016-09-29,78.279999,78.570000,77.080002,77.209999,74.138695,175600
2016-09-30,77.360001,77.919998,76.970001,77.410004,74.330734,407300
2016-10-03,77.070000,77.440002,76.599998,77.360001,74.282715,301500
2016-10-04,77.239998,77.680000,76.000000,76.099998,73.072830,242700
2016-10-05,76.459999,76.589996,75.930000,76.110001,73.082443,189300
2016-10-06,76.099998,76.669998,75.760002,76.639999,73.591362,153500
2016-10-07,76.660004,76.669998,75.190002,75.639999,72.631142,279500
2016-10-10,76.040001,76.519997,75.680000,75.949997,72.928818,116400
2016-10-11,75.620003,75.720001,74.550003,75.070000,72.083824,152700
2016-10-12,75.559998,75.809998,75.110001,75.660004,72.650352,140900
2016-10-13,74.779999,76.199997,74.580002,75.589996,72.583130,211200
2016-10-14,75.620003,76.320000,75.570000,76.029999,73.005638,176800
2016-10-17,76.019997,76.470001,76.010002,76.199997,73.168861,80900
2016-10-18,76.779999,77.000000,75.980003,76.389999,73.351311,112900
2016-10-19,76.279999,76.779999,76.040001,76.480003,73.437721,97900
2016-10-20,76.120003,76.800003,75.389999,75.970001,72.948006,219300
2016-10-21,76.230003,77.410004,75.870003,77.160004,74.090683,184300
2016-10-24,78.099998,78.099998,76.550003,77.000000,73.937050,150800
2016-10-25,77.000000,77.139999,76.190002,77.000000,73.937050,187000
2016-10-26,76.820000,77.190002,76.199997,76.269997,73.236076,179200
2016-10-27,76.389999,76.389999,75.610001,76.279999,73.245689,174600
2016-10-28,75.110001,75.989998,72.580002,73.019997,70.115364,464700
2016-10-31,72.930000,73.889999,70.879997,71.440002,68.900177,644800
2016-11-01,71.809998,71.849998,70.320000,70.620003,68.109314,345000
2016-11-02,70.580002,71.540001,70.430000,70.919998,68.398651,267400
2016-11-03,70.849998,71.459999,70.639999,70.870003,68.350426,218400
2016-11-04,71.110001,71.900002,70.980003,71.410004,68.871239,235500
2016-11-07,72.570000,74.349998,72.290001,74.330002,71.687424,458400
2016-11-08,74.279999,76.070000,74.050003,75.739998,73.047295,506700
2016-11-09,74.910004,76.070000,74.529999,75.110001,72.439690,313100
2016-11-10,75.599998,75.599998,71.269997,71.430000,68.890503,636100
2016-11-11,71.360001,72.129997,70.750000,71.849998,69.295586,316900
2016-11-14,72.290001,73.540001,72.290001,73.510002,70.896568,308000
2016-11-15,73.480003,73.800003,72.989998,73.379997,70.771194,190100
2016-11-16,73.629997,73.720001,72.910004,73.570000,70.954430,205000
2016-11-17,73.580002,74.260002,72.800003,73.580002,70.964073,207500
2016-11-18,73.419998,73.760002,72.870003,73.650002,71.031593,229800
2016-11-21,73.699997,74.260002,73.339996,74.239998,71.600609,182500
2016-11-22,74.599998,75.650002,73.959999,75.489998,72.806168,452400
2016-11-23,75.169998,76.250000,75.169998,76.050003,73.346260,193800
2016-11-25,76.040001,76.660004,75.750000,76.070000,73.365547,123600
2016-11-28,76.099998,77.279999,76.019997,76.470001,73.751328,346700
2016-11-29,76.550003,76.860001,74.800003,75.680000,72.989418,327500
2016-11-30,76.019997,76.050003,73.169998,73.180000,70.578300,322800
2016-12-01,73.199997,74.339996,72.459999,74.080002,71.446312,467500
2016-12-02,74.050003,74.550003,73.599998,74.349998,71.706703,388100
2016-12-05,74.839996,75.129997,73.160004,73.379997,70.771194,351000
2016-12-06,73.309998,73.860001,73.099998,73.800003,71.176262,356700
2016-12-07,71.839996,73.919998,71.839996,73.480003,70.867653,579300
2016-12-08,73.489998,74.589996,73.489998,74.199997,71.562035,408300
2016-12-09,74.610001,75.180000,74.279999,74.750000,72.092491,389200
2016-12-12,74.849998,75.150002,74.150002,74.610001,71.957466,276800
2016-12-13,74.900002,75.599998,74.309998,74.370003,71.726006,270700
2016-12-14,74.570000,74.970001,72.959999,73.050003,70.452927,343900
2016-12-15,73.320000,73.720001,72.830002,72.959999,70.366127,346100
2016-12-16,73.220001,73.400002,72.730003,72.930000,70.337181,665800
2016-12-19,73.190002,74.029999,72.779999,73.800003,71.176262,280500
2016-12-20,73.650002,74.059998,73.400002,73.980003,71.349854,269400
2016-12-21,73.870003,74.160004,73.339996,73.360001,70.751900,280600
2016-12-22,73.500000,73.500000,72.580002,73.019997,70.423981,291800
2016-12-23,72.860001,73.930000,72.860001,73.610001,70.993004,161500
2016-12-27,73.809998,74.570000,73.449997,74.169998,71.533096,201800
2016-12-28,74.050003,74.690002,73.570000,73.720001,71.099121,191000
2016-12-29,73.639999,74.120003,73.320000,73.690002,71.070160,139400
2016-12-30,73.730003,74.019997,73.250000,73.449997,70.838692,240200
2017-01-03,74.260002,74.260002,72.349998,73.019997,70.423981,336300
2017-01-04,72.919998,74.720001,72.919998,74.230003,71.590973,418800
2017-01-05,73.720001,74.410004,73.230003,73.470001,70.857986,356400
2017-01-06,73.529999,73.970001,73.070000,73.500000,70.886925,282800
2017-01-09,73.500000,74.410004,73.080002,73.680000,71.060524,374100
2017-01-10,73.330002,73.589996,72.800003,72.820000,70.231102,161500
2017-01-11,73.029999,73.360001,72.779999,73.040001,70.443283,193100
2017-01-12,73.150002,73.760002,72.360001,73.330002,70.722977,184300
2017-01-13,73.309998,73.820000,73.029999,73.500000,70.886925,188900
2017-01-17,72.879997,73.830002,72.860001,73.339996,70.732613,270200
2017-01-18,73.419998,73.800003,73.019997,73.480003,70.867653,261000
2017-01-19,73.639999,73.690002,72.459999,72.730003,70.144295,374700
2017-01-20,72.370003,72.510002,71.550003,71.639999,69.093048,347300
2017-01-23,71.879997,72.529999,71.440002,72.449997,69.874252,384600
2017-01-24,72.790001,73.849998,72.790001,73.540001,70.925507,266000
2017-01-25,73.360001,73.940002,73.139999,73.430000,70.819412,267000
2017-01-26,73.389999,73.680000,72.459999,73.320000,70.713326,275500
2017-01-27,73.400002,73.489998,72.910004,73.440002,70.829063,320400
2017-01-30,73.070000,73.440002,72.099998,72.739998,70.460968,342000
2017-01-31,72.870003,73.309998,72.290001,72.970001,70.683762,669400
2017-02-01,73.290001,74.050003,73.050003,73.940002,71.623367,446900
2017-02-02,73.800003,73.800003,73.010002,73.330002,71.032471,325700
2017-02-03,73.769997,74.129997,73.500000,73.779999,71.468384,278200
2017-02-06,73.529999,74.019997,73.120003,73.349998,71.051842,254500
2017-02-07,73.339996,73.470001,72.650002,72.730003,70.451271,360800
2017-02-08,72.620003,73.699997,72.440002,73.550003,71.245575,397300
2017-02-09,73.370003,73.940002,73.160004,73.570000,71.264961,438000
2017-02-10,74.209999,76.199997,74.209999,74.790001,72.446739,1160100
2017-02-13,75.220001,75.440002,74.360001,74.430000,72.098007,440000
2017-02-14,74.400002,74.400002,73.720001,73.830002,71.516808,432000
2017-02-15,73.830002,73.919998,72.860001,73.199997,70.906548,522800
2017-02-16,73.400002,74.230003,73.400002,74.199997,71.875214,267000
2017-02-17,74.419998,74.550003,73.470001,73.900002,71.584633,318600
2017-02-21,73.910004,74.660004,73.860001,74.589996,72.252983,188600
2017-02-22,74.339996,74.809998,73.940002,74.260002,71.933342,204500
2017-02-23,74.470001,74.559998,74.040001,74.120003,71.797707,250600
2017-02-24,73.779999,74.489998,73.639999,74.360001,72.030205,232400
2017-02-27,74.099998,75.019997,74.099998,74.480003,72.146439,251800
2017-02-28,74.269997,74.650002,73.949997,74.510002,72.175507,390200
2017-03-01,75.209999,76.169998,74.919998,76.059998,73.676941,371000
2017-03-02,75.690002,76.070000,75.459999,75.809998,73.434776,327700
2017-03-03,75.529999,76.239998,75.529999,76.040001,73.657555,298400
2017-03-06,75.470001,76.089996,75.470001,75.650002,73.279793,302100
2017-03-07,75.540001,75.940002,75.180000,75.470001,73.105423,452700
2017-03-08,75.279999,76.059998,75.279999,75.940002,73.560699,435600
2017-03-09,75.879997,76.480003,75.589996,75.849998,73.473526,341200
2017-03-10,76.120003,77.000000,75.800003,76.790001,74.384071,435400
2017-03-13,76.800003,77.000000,76.160004,76.750000,74.345329,221900
2017-03-14,75.629997,77.019997,75.349998,76.529999,74.132202,265900
2017-03-15,76.919998,77.690002,76.830002,77.239998,74.819969,225600
2017-03-16,77.300003,77.529999,76.690002,76.980003,74.568115,186200
2017-03-17,76.900002,77.239998,76.589996,77.080002,74.664978,405100
2017-03-20,77.169998,77.870003,76.750000,77.839996,75.401169,247300
2017-03-21,77.720001,77.830002,76.629997,76.769997,74.364693,321300
2017-03-22,76.660004,77.080002,76.510002,76.849998,74.442184,130100
2017-03-23,76.830002,77.739998,76.320000,77.160004,74.742470,136400
2017-03-24,77.190002,77.650002,76.330002,76.620003,74.219398,154300
2017-03-27,75.809998,76.760002,75.809998,76.620003,74.219398,256200
2017-03-28,76.410004,77.279999,76.330002,77.070000,74.655296,237700
2017-03-29,77.110001,77.110001,76.489998,77.040001,74.626236,129300
2017-03-30,76.989998,77.379997,76.559998,76.860001,74.451889,141800
2017-03-31,76.900002,77.279999,76.419998,76.989998,74.577805,197200
2017-04-03,76.940002,77.459999,76.209999,76.449997,74.054710,424900
2017-04-04,76.500000,76.900002,75.949997,76.739998,74.335632,318700
2017-04-05,77.040001,77.040001,76.019997,76.080002,73.696320,372800
2017-04-06,75.940002,76.540001,75.489998,76.529999,74.132202,293700
2017-04-07,76.489998,76.790001,76.019997,76.160004,73.773811,214800
2017-04-10,75.940002,76.949997,75.919998,76.889999,74.480927,242100
2017-04-11,76.599998,76.970001,76.419998,76.919998,74.509987,263700
2017-04-12,76.889999,76.919998,76.040001,76.230003,73.841621,236800
2017-04-13,76.050003,76.589996,75.760002,75.800003,73.425079,164800
2017-04-17,76.029999,77.300003,75.879997,77.269997,74.849030,220500
2017-04-18,77.040001,77.680000,76.940002,77.570000,75.139633,196800
2017-04-19,77.870003,77.930000,77.510002,77.550003,75.120270,264800
2017-04-20,76.949997,78.320000,76.949997,77.820000,75.381798,354300
2017-04-21,78.180000,78.639999,77.099998,77.989998,75.546455,185200
2017-04-24,78.970001,78.970001,77.720001,78.300003,75.846756,250700
2017-04-25,78.349998,79.169998,77.620003,78.730003,76.263290,290500
2017-04-26,78.919998,79.500000,78.690002,79.339996,76.854164,343000
2017-04-27,79.199997,79.599998,78.430000,78.790001,76.321411,237600
2017-04-28,80.000000,80.529999,78.760002,80.300003,77.784103,637700
2017-05-01,80.080002,80.599998,79.209999,79.730003,77.540970,974600
2017-05-02,79.349998,80.680000,78.889999,80.199997,77.998047,450100
2017-05-03,79.889999,80.660004,79.500000,80.449997,78.241180,384500
2017-05-04,80.500000,81.720001,80.500000,81.389999,79.155388,488800
2017-05-05,81.400002,82.169998,81.320000,81.910004,79.661118,413400
2017-05-08,82.080002,82.610001,81.720001,82.510002,80.244629,374100
2017-05-09,82.610001,82.940002,82.110001,82.480003,80.215462,302600
2017-05-10,82.250000,83.040001,82.250000,82.870003,80.594749,308100
2017-05-11,82.489998,82.919998,81.820000,82.529999,80.264084,311500
2017-05-12,82.449997,82.820000,82.239998,82.430000,80.166832,227600
2017-05-15,82.430000,82.980003,82.190002,82.629997,80.361336,211900
2017-05-16,82.580002,82.800003,82.230003,82.790001,80.516937,210700
2017-05-17,82.790001,82.790001,81.849998,82.279999,80.020943,266100
2017-05-18,82.250000,82.400002,81.120003,82.139999,79.884781,325700
2017-05-19,82.190002,82.510002,81.820000,82.360001,80.098747,331900
2017-05-22,82.250000,82.980003,82.050003,82.839996,80.565559,238500
2017-05-23,83.000000,83.660004,82.970001,83.190002,80.905960,204100
2017-05-24,83.190002,83.519997,82.800003,83.389999,81.100471,187400
2017-05-25,83.620003,84.279999,83.260002,84.150002,81.839615,203200
2017-05-26,84.150002,84.629997,84.059998,84.370003,82.053574,158300
2017-05-30,84.129997,84.639999,83.800003,84.540001,82.218895,224400
2017-05-31,85.180000,85.180000,84.419998,85.010002,82.675987,285400
2017-06-01,85.250000,86.309998,85.010002,86.260002,83.891678,272600
2017-06-02,86.400002,86.730003,85.730003,86.330002,83.959740,170700
2017-06-05,86.099998,87.089996,85.779999,85.849998,83.492928,237600
2017-06-06,85.830002,85.830002,85.059998,85.480003,83.133087,342600
2017-06-07,85.110001,85.919998,85.059998,85.690002,83.337334,366600
2017-06-08,85.779999,85.989998,84.860001,85.250000,82.909416,185000
2017-06-09,85.300003,85.800003,85.180000,85.650002,83.298431,189800
2017-06-12,85.239998,85.980003,84.870003,85.440002,83.094185,239000
2017-06-13,85.860001,86.180000,85.480003,86.180000,83.813873,178500
2017-06-14,86.040001,86.769997,86.040001,86.250000,83.881958,212300
2017-06-15,85.519997,86.290001,84.900002,86.230003,83.862503,200000
2017-06-16,86.000000,86.360001,85.449997,85.949997,83.590179,450200
2017-06-19,86.320000,86.870003,85.930000,86.750000,84.368217,166600
2017-06-20,86.949997,87.180000,86.650002,86.889999,84.504379,240200
2017-06-21,86.919998,87.940002,86.550003,87.000000,84.611351,185800
2017-06-22,86.959999,87.360001,86.410004,86.820000,84.436295,166200
2017-06-23,86.830002,87.680000,86.330002,86.800003,84.416840,474300
2017-06-26,86.970001,87.589996,86.610001,87.139999,84.747505,307000
2017-06-27,87.000000,87.510002,86.339996,86.370003,83.998657,187900
2017-06-28,86.959999,87.370003,86.269997,86.930000,84.543274,169600
2017-06-29,86.870003,87.129997,85.779999,86.489998,84.115349,196100
2017-06-30,86.930000,87.330002,86.769997,86.860001,84.475212,238500
2017-07-03,87.209999,87.669998,86.889999,87.080002,84.689171,118800
2017-07-05,86.949997,87.500000,86.440002,87.290001,84.893394,243900
2017-07-06,86.830002,87.739998,86.690002,87.309998,84.912842,393900
2017-07-07,87.690002,88.550003,87.139999,88.089996,85.671417,245200
2017-07-10,87.949997,89.070000,87.480003,88.300003,85.875679,246000
2017-07-11,88.190002,88.580002,87.750000,88.169998,85.749229,180700
2017-07-12,88.860001,89.320000,88.430000,88.980003,86.537003,142400
2017-07-13,89.070000,89.269997,87.790001,88.629997,86.196594,278600
2017-07-14,89.120003,89.970001,88.919998,89.430000,86.974648,305900
2017-07-17,89.500000,89.970001,89.230003,89.790001,87.324760,299300
2017-07-18,89.400002,90.410004,89.080002,89.739998,87.276123,278500
2017-07-19,90.320000,90.790001,89.680000,90.089996,87.616516,395300
2017-07-20,90.269997,90.480003,89.529999,89.699997,87.237221,323100
2017-07-21,89.989998,89.989998,89.000000,89.510002,87.052444,271500
2017-07-24,88.940002,89.589996,88.589996,89.459999,87.315971,390200
2017-07-25,89.959999,89.959999,88.519997,88.690002,86.564430,596900
2017-07-26,88.779999,88.970001,87.989998,88.059998,85.949524,317800
2017-07-27,88.500000,88.500000,87.260002,88.000000,85.890968,328900
2017-07-28,83.400002,83.699997,80.830002,82.309998,80.337341,915000
2017-07-31,82.239998,83.500000,80.690002,80.930000,78.990402,962700
2017-08-01,81.000000,82.790001,80.980003,82.510002,80.532539,463400
2017-08-02,82.540001,82.750000,81.230003,82.250000,80.278778,348600
2017-08-03,82.300003,82.419998,81.820000,82.250000,80.278778,322100
2017-08-04,82.500000,82.779999,82.169998,82.360001,80.386131,168100
2017-08-07,82.550003,82.949997,82.389999,82.739998,80.757019,171600
2017-08-08,82.629997,82.930000,82.400002,82.739998,80.757019,163300
2017-08-09,82.500000,82.800003,82.239998,82.480003,80.503265,188900
2017-08-10,82.230003,82.739998,81.480003,81.510002,79.556511,265100
2017-08-11,82.349998,82.349998,81.410004,82.139999,80.171394,214100
2017-08-14,82.629997,83.000000,82.510002,82.910004,80.922951,147300
2017-08-15,82.739998,83.000000,82.550003,82.750000,80.766792,190900
2017-08-16,82.860001,83.830002,82.699997,83.550003,81.547623,248800
2017-08-17,83.269997,83.519997,82.120003,82.129997,80.161644,221700
2017-08-18,82.010002,82.300003,81.639999,82.150002,80.181168,191000
2017-08-21,82.059998,82.480003,81.339996,81.489998,79.536987,126300
2017-08-22,81.980003,82.290001,81.730003,82.120003,80.151894,190100
2017-08-23,81.750000,82.529999,81.489998,81.610001,79.654106,180500
2017-08-24,81.730003,82.059998,80.949997,81.080002,79.136818,180000
2017-08-25,81.500000,82.730003,81.500000,82.389999,80.415421,330100
2017-08-28,82.650002,82.779999,81.489998,81.860001,79.898109,241600
2017-08-29,81.900002,82.099998,81.570000,82.000000,80.034767,226300
2017-08-30,82.139999,83.180000,81.900002,82.970001,80.981514,207600
2017-08-31,83.180000,83.660004,82.720001,83.610001,81.606186,266700
2017-09-01,83.800003,84.000000,83.419998,83.879997,81.869705,183000
2017-09-05,83.720001,84.169998,83.180000,83.250000,81.254807,191900
2017-09-06,83.330002,83.330002,82.489998,82.849998,80.864388,240900
2017-09-07,82.959999,83.739998,82.320000,83.610001,81.606186,241000
2017-09-08,83.500000,84.180000,82.769997,83.820000,81.811150,207600
2017-09-11,84.320000,85.169998,84.000000,85.120003,83.079994,209800
2017-09-12,84.930000,85.440002,84.709999,85.199997,83.158066,214500
2017-09-13,84.610001,85.040001,84.370003,84.500000,82.474838,229000
2017-09-14,84.510002,85.099998,84.160004,84.870003,82.835991,166300
2017-09-15,84.739998,84.949997,84.480003,84.709999,82.679825,399800
2017-09-18,84.970001,85.669998,84.739998,85.440002,83.392319,198600
2017-09-19,85.430000,85.760002,84.949997,85.559998,83.509438,260300
2017-09-20,85.660004,86.239998,85.639999,86.120003,84.056030,167200
2017-09-21,86.080002,86.760002,85.870003,86.150002,84.085289,199600
2017-09-22,86.199997,86.269997,85.449997,85.720001,83.665611,189400
2017-09-25,85.750000,86.889999,85.349998,86.760002,84.680672,222800
2017-09-26,87.099998,87.320000,86.449997,86.750000,84.670921,199700
2017-09-27,86.800003,86.930000,86.209999,86.540001,84.465958,272900
2017-09-28,86.360001,87.510002,86.089996,87.080002,84.993027,228200
2017-09-29,87.019997,87.129997,86.300003,86.309998,84.241463,220700
2017-10-02,86.809998,87.970001,86.540001,87.879997,85.773842,264000
2017-10-03,87.900002,88.440002,87.900002,88.430000,86.310654,202100
2017-10-04,88.260002,88.849998,87.919998,88.139999,86.027603,231600
2017-10-05,88.510002,88.730003,87.620003,88.139999,86.027603,178900
2017-10-06,88.040001,88.629997,87.900002,88.580002,86.457062,162800
2017-10-09,88.680000,88.790001,88.330002,88.459999,86.339943,139400
2017-10-10,88.599998,88.870003,88.220001,88.470001,86.349701,186700
2017-10-11,88.480003,88.800003,88.190002,88.360001,86.242332,162500
2017-10-12,88.500000,88.709999,88.220001,88.489998,86.369217,168000
2017-10-13,88.690002,89.370003,88.690002,88.839996,86.710831,187100
2017-10-16,88.919998,88.940002,87.970001,88.940002,86.808441,236000
2017-10-17,89.300003,89.300003,88.709999,88.980003,86.847481,175200
2017-10-18,88.730003,89.370003,88.320000,88.599998,86.476585,207400
2017-10-19,88.510002,88.830002,88.349998,88.639999,86.515625,151600
2017-10-20,89.230003,89.309998,88.699997,89.199997,87.062202,134800
2017-10-23,89.160004,89.680000,88.919998,89.029999,86.896278,418900
2017-10-24,89.059998,89.629997,88.830002,89.120003,86.984123,189100
2017-10-25,89.070000,89.470001,87.690002,88.489998,86.369217,201800
2017-10-26,88.809998,89.239998,88.599998,88.940002,86.808441,234700
2017-10-27,89.400002,89.400002,85.889999,87.930000,85.822647,531500
2017-10-30,87.459999,87.589996,86.250000,86.459999,84.387871,260400
2017-10-31,86.250000,87.300003,86.120003,87.070000,85.298958,474700
2017-11-01,87.830002,88.120003,87.209999,87.410004,85.632050,279300
2017-11-02,87.089996,87.370003,86.320000,86.599998,84.838509,259200
2017-11-03,86.599998,87.180000,86.599998,86.940002,85.171600,216000
2017-11-06,87.019997,87.080002,85.680000,85.849998,84.103775,271600
2017-11-07,85.849998,86.110001,85.389999,85.720001,83.976418,326900
2017-11-08,85.680000,86.599998,85.639999,85.730003,83.986206,271400
2017-11-09,85.199997,85.419998,84.320000,84.760002,83.035950,146600
2017-11-10,84.349998,85.110001,84.220001,84.910004,83.182899,195800
2017-11-13,84.620003,85.760002,84.620003,85.589996,83.849060,156100
2017-11-14,85.379997,85.889999,85.160004,85.610001,83.868645,157400
2017-11-15,85.540001,85.980003,85.080002,85.480003,83.741295,182500
2017-11-16,85.739998,86.500000,85.599998,86.110001,84.358475,264400
2017-11-17,86.029999,86.239998,85.480003,85.650002,83.907845,171000
2017-11-20,85.610001,86.430000,85.320000,85.470001,83.731506,220200
2017-11-21,85.919998,86.820000,85.320000,86.540001,84.779739,506700
2017-11-22,86.610001,86.620003,85.790001,85.849998,84.103775,140300
2017-11-24,85.489998,86.339996,85.099998,86.250000,84.495636,108200
2017-11-27,86.370003,87.000000,86.370003,86.739998,84.975670,330900
2017-11-28,87.279999,87.470001,86.430000,86.910004,85.142220,194600
2017-11-29,87.110001,87.739998,87.080002,87.559998,85.778976,193900
2017-11-30,87.610001,88.900002,87.080002,88.410004,86.611702,232000
2017-12-01,88.330002,88.989998,86.440002,87.599998,85.818176,244300
2017-12-04,87.790001,88.699997,87.320000,88.059998,86.268814,290400
2017-12-05,88.330002,89.160004,87.889999,89.000000,87.189713,255800
2017-12-06,88.940002,88.940002,88.120003,88.169998,86.376579,251700
2017-12-07,88.449997,88.720001,87.790001,88.379997,86.582306,258900
2017-12-08,88.269997,88.500000,87.559998,87.900002,86.112076,251000
2017-12-11,87.870003,87.870003,86.860001,87.279999,85.504684,241200
2017-12-12,87.300003,87.540001,85.699997,86.430000,84.671974,424400
2017-12-13,86.050003,87.190002,85.760002,86.690002,84.926689,420900
2017-12-14,87.080002,87.209999,86.320000,86.370003,84.613197,302000
2017-12-15,86.589996,87.510002,86.589996,86.980003,85.210785,474900
2017-12-18,87.250000,87.889999,86.480003,86.570000,84.809128,251800
2017-12-19,86.300003,87.650002,86.300003,86.580002,84.818916,367200
2017-12-20,86.839996,87.129997,86.290001,86.330002,84.574005,189500
2017-12-21,86.400002,86.790001,85.720001,85.760002,84.015610,265400
2017-12-22,85.680000,86.360001,85.430000,85.900002,84.152763,162500
2017-12-26,85.790001,86.449997,85.220001,85.389999,83.653122,130500
2017-12-27,85.419998,85.820000,85.059998,85.620003,83.878448,114500
2017-12-28,85.849998,86.870003,85.660004,86.750000,84.985466,207000
2017-12-29,86.879997,87.000000,86.239998,86.279999,84.525024,148900
2018-01-02,86.440002,87.320000,86.080002,87.010002,85.240189,233300
2018-01-03,87.260002,87.610001,86.820000,87.190002,85.416519,177700
2018-01-04,87.209999,87.930000,85.800003,86.010002,84.260521,362900
2018-01-05,86.290001,87.449997,86.190002,86.910004,85.142220,209200
2018-01-08,86.860001,87.510002,86.570000,87.199997,85.426308,341200
2018-01-09,87.279999,87.760002,86.360001,86.389999,84.632782,282000
2018-01-10,86.099998,86.099998,85.160004,85.669998,83.927429,161400
2018-01-11,85.440002,86.489998,85.440002,86.250000,84.495636,311600
2018-01-12,86.370003,86.940002,85.879997,86.559998,84.799332,179400
2018-01-16,86.360001,87.209999,86.010002,86.239998,84.485840,254000
2018-01-17,86.769997,87.279999,86.510002,86.839996,85.073631,250400
2018-01-18,86.849998,87.320000,86.349998,87.239998,85.465492,220800
2018-01-19,87.300003,88.699997,87.300003,88.610001,86.807632,177500
2018-01-22,88.610001,88.610001,86.599998,87.459999,85.681023,369900
2018-01-23,87.440002,87.750000,86.910004,87.599998,85.818176,158800
2018-01-24,87.809998,88.599998,86.349998,88.199997,86.405975,255000
2018-01-25,88.400002,89.430000,88.129997,89.430000,87.610954,339100
2018-01-26,89.480003,89.500000,88.459999,89.139999,87.326851,206300
2018-01-29,88.730003,89.230003,87.540001,87.730003,85.945549,254300
2018-01-30,87.449997,87.959999,87.050003,87.690002,86.220848,345000
2018-01-31,88.089996,88.099998,86.760002,87.419998,85.955360,519100
2018-02-01,87.239998,87.629997,85.809998,86.839996,85.385078,220800
2018-02-02,86.529999,86.910004,85.540001,85.800003,84.362518,217000
2018-02-05,85.099998,86.000000,83.379997,83.379997,81.983047,434200
2018-02-06,82.379997,83.889999,81.410004,83.790001,82.386185,352300
2018-02-07,83.809998,84.910004,83.730003,83.849998,82.445168,304100
2018-02-08,83.860001,84.820000,81.360001,81.379997,80.016563,349100
2018-02-09,82.089996,82.589996,79.970001,82.160004,80.783501,367200
2018-02-12,82.559998,83.449997,81.589996,82.599998,81.216118,303000
2018-02-13,86.750000,92.320000,86.300003,89.720001,88.216835,1102000
2018-02-14,89.580002,90.870003,88.739998,90.660004,89.141090,512100
2018-02-15,90.180000,91.970001,90.180000,91.169998,89.642540,333300
2018-02-16,91.040001,92.139999,90.489998,91.830002,90.291489,335500
2018-02-20,91.239998,92.190002,90.720001,91.059998,89.534378,372000
2018-02-21,91.339996,92.279999,90.110001,90.160004,88.649460,283200
2018-02-22,90.440002,91.459999,90.309998,90.610001,89.091919,255300
2018-02-23,90.739998,91.070000,89.930000,90.989998,89.465553,249400
2018-02-26,91.279999,91.480003,90.389999,90.779999,89.259071,250300
2018-02-27,90.730003,90.730003,89.440002,89.500000,88.000519,286500
2018-02-28,89.730003,90.410004,89.209999,89.419998,87.921844,306900
2018-03-01,89.239998,90.489998,88.309998,89.000000,87.508904,241900
2018-03-02,88.739998,89.889999,88.300003,89.680000,88.177498,270600
2018-03-05,89.309998,90.699997,89.309998,90.400002,88.885437,231200
2018-03-06,90.370003,91.050003,89.279999,90.769997,89.249237,295800
2018-03-07,89.980003,91.139999,89.709999,90.139999,88.629791,317500
2018-03-08,90.400002,90.830002,89.449997,89.949997,88.442978,368000
2018-03-09,89.940002,90.949997,89.559998,90.870003,89.347565,283100
2018-03-12,90.699997,90.989998,90.400002,90.779999,89.259071,181100
2018-03-13,91.269997,92.099998,90.269997,90.500000,88.983772,257500
2018-03-14,90.959999,91.269997,89.430000,90.070000,88.560966,266900
2018-03-15,90.139999,90.570000,89.800003,90.279999,88.767456,239600
2018-03-16,90.349998,91.129997,89.760002,90.150002,88.639633,424800
2018-03-19,90.059998,90.360001,89.449997,89.959999,88.452805,155000
2018-03-20,90.019997,90.489998,89.669998,89.779999,88.275826,247700
2018-03-21,89.709999,90.339996,89.389999,89.589996,88.089005,266300
2018-03-22,89.220001,89.910004,87.930000,87.959999,86.486320,260900
2018-03-23,87.940002,87.940002,86.690002,86.769997,85.316246,215900
2018-03-26,87.660004,88.550003,87.070000,88.209999,86.732124,278900
2018-03-27,88.519997,89.129997,87.620003,88.080002,86.604309,253200
2018-03-28,88.080002,88.900002,87.820000,88.360001,86.879616,194000
2018-03-29,88.879997,90.339996,88.360001,89.830002,88.324997,287300
2018-04-02,89.370003,89.739998,87.169998,87.930000,86.456825,184400
2018-04-03,88.430000,90.169998,87.690002,89.559998,88.059517,336600
2018-04-04,88.919998,89.949997,86.849998,89.709999,88.207001,276500
2018-04-05,90.300003,90.849998,89.279999,90.400002,88.885437,276400
2018-04-06,89.690002,90.360001,88.230003,88.500000,87.017273,362200
2018-04-09,89.150002,90.339996,88.599998,89.900002,88.393822,471500
2018-04-10,90.750000,93.099998,90.099998,92.720001,91.166565,455600
2018-04-11,91.970001,92.639999,91.750000,92.250000,90.704445,250800
2018-04-12,92.760002,93.250000,92.480003,92.699997,91.146904,221500
2018-04-13,93.199997,93.330002,92.459999,92.750000,91.196068,262600
2018-04-16,93.029999,94.660004,92.959999,94.309998,92.729935,196900
2018-04-17,94.279999,96.389999,93.790001,96.129997,94.519432,507200
2018-04-18,96.150002,96.199997,95.180000,95.610001,94.008148,346800
2018-04-19,95.050003,95.879997,94.540001,94.800003,93.211723,165000
2018-04-20,95.110001,95.139999,94.120003,94.440002,92.857758,217800
2018-04-23,94.709999,95.430000,94.099998,94.349998,92.769264,189500
2018-04-24,94.599998,94.699997,92.769997,93.180000,91.618858,401900
2018-04-25,93.019997,93.949997,92.370003,93.150002,91.589371,298700
2018-04-26,93.180000,93.699997,92.599998,93.279999,91.717186,417000
2018-04-27,93.750000,94.739998,91.879997,93.459999,91.894173,407500
2018-04-30,93.730003,93.989998,93.050003,93.500000,91.933510,907800
2018-05-01,93.449997,93.870003,92.730003,93.540001,91.972839,427800
2018-05-02,94.000000,94.000000,92.470001,92.559998,91.009247,631100
2018-05-03,92.250000,92.830002,90.980003,91.120003,89.593376,560200
2018-05-04,90.839996,92.769997,90.839996,92.260002,90.714279,339900
2018-05-07,92.370003,93.290001,92.300003,92.800003,91.245232,215100
2018-05-08,92.769997,92.790001,91.550003,91.760002,90.534843,284600
2018-05-09,92.000000,93.059998,91.370003,92.959999,91.718826,255500
2018-05-10,93.099998,93.940002,93.050003,93.790001,92.537735,377900
2018-05-11,93.750000,94.320000,93.150002,94.290001,93.031067,492900
2018-05-14,94.190002,94.709999,92.290001,93.370003,92.123352,477500
2018-05-15,93.169998,93.169998,91.589996,92.099998,90.870293,406400
2018-05-16,92.320000,93.769997,91.919998,93.540001,92.291077,257600
2018-05-17,93.669998,93.919998,93.050003,93.290001,92.044411,242600
2018-05-18,92.559998,94.279999,92.379997,93.559998,92.310806,272300
2018-05-21,94.019997,94.410004,93.839996,94.010002,92.754807,162300
2018-05-22,94.279999,94.949997,93.669998,93.959999,92.705467,165300
2018-05-23,93.629997,94.269997,93.360001,94.089996,92.833717,165800
2018-05-24,94.120003,94.480003,93.580002,94.029999,92.774529,116200
2018-05-25,93.879997,94.419998,93.849998,94.080002,92.823875,154900
2018-05-29,93.459999,94.010002,93.059998,93.309998,92.064140,212700
2018-05-30,92.699997,94.410004,92.699997,93.959999,92.705467,258600
2018-05-31,94.250000,94.389999,92.190002,92.320000,91.087364,151900
2018-06-01,92.879997,93.290001,92.470001,92.769997,91.531349,174800
2018-06-04,93.110001,93.900002,92.440002,93.860001,92.606804,172100
2018-06-05,94.059998,94.500000,93.559998,93.919998,92.666000,114800
2018-06-06,93.669998,94.099998,92.040001,93.910004,92.656136,437300
2018-06-07,93.830002,94.430000,92.440002,93.239998,91.995079,534000
2018-06-08,93.050003,93.900002,92.980003,93.660004,92.409477,290600
2018-06-11,93.790001,94.860001,93.430000,93.820000,92.567337,389400
2018-06-12,94.089996,94.889999,93.599998,94.150002,92.892929,455100
2018-06-13,94.550003,95.000000,94.050003,94.320000,93.060661,321400
2018-06-14,94.809998,95.260002,94.260002,94.860001,93.593452,320400
2018-06-15,95.000000,95.370003,94.389999,94.919998,93.652649,505200
2018-06-18,94.570000,95.080002,94.019997,94.839996,93.573715,347300
2018-06-19,93.949997,94.620003,93.610001,94.250000,92.991592,333700
2018-06-20,94.169998,94.870003,93.940002,94.639999,93.376389,285600
2018-06-21,94.510002,94.610001,92.949997,93.099998,91.856949,296900
2018-06-22,93.279999,93.489998,92.339996,92.629997,91.393227,681100
2018-06-25,92.769997,93.199997,91.419998,92.180000,90.949234,348700
2018-06-26,92.349998,93.449997,92.019997,92.709999,91.472145,266700
2018-06-27,92.779999,93.910004,92.070000,92.099998,90.870293,295800
2018-06-28,92.000000,92.760002,91.660004,92.709999,91.472145,251300
2018-06-29,93.199997,94.120003,92.930000,93.379997,92.133202,335800
2018-07-02,92.910004,93.769997,92.459999,93.589996,92.340401,237500
2018-07-03,93.959999,95.029999,93.610001,93.989998,92.735069,178000
2018-07-05,94.489998,94.540001,93.449997,94.540001,93.277725,249900
2018-07-06,94.220001,94.379997,93.720001,94.080002,92.823875,238000
2018-07-09,94.449997,95.629997,94.449997,95.099998,93.830246,188700
2018-07-10,95.169998,96.160004,95.169998,96.110001,94.826759,216100
2018-07-11,95.610001,96.370003,95.110001,95.680000,94.402496,220800
2018-07-12,96.000000,96.830002,95.589996,95.739998,94.461693,196700
2018-07-13,95.360001,96.190002,94.660004,94.870003,93.603317,205300
2018-07-16,94.769997,94.879997,93.169998,93.290001,92.044411,132000
2018-07-17,93.220001,94.739998,93.160004,94.639999,93.376389,155400
2018-07-18,94.639999,95.180000,94.180000,94.620003,93.356659,150000
2018-07-19,94.699997,96.540001,94.699997,96.330002,95.043823,213300
2018-07-20,95.940002,96.160004,95.330002,95.779999,94.501167,192600
2018-07-23,95.940002,96.330002,94.790001,95.139999,93.869705,195800
2018-07-24,95.339996,95.860001,94.529999,94.750000,93.484924,225300
2018-07-25,94.570000,95.000000,94.050003,94.730003,93.465195,182300
2018-07-26,94.879997,96.379997,94.559998,96.070000,94.787292,170300
2018-07-27,98.000000,103.029999,97.150002,102.900002,101.526100,626000
2018-07-30,103.519997,104.099998,99.940002,102.500000,101.131447,531800
2018-07-31,102.480003,103.480003,100.779999,102.430000,101.398720,588100
2018-08-01,102.400002,102.680000,101.410004,102.430000,101.398720,301400
2018-08-02,101.639999,103.580002,101.309998,102.980003,101.943192,327400
2018-08-03,102.989998,104.500000,102.849998,104.099998,103.051910,300200
2018-08-06,104.010002,104.949997,103.980003,104.209999,103.160805,279500
2018-08-07,104.160004,104.680000,103.389999,103.550003,102.507454,296500
2018-08-08,103.339996,103.980003,102.870003,102.959999,101.923386,277900
2018-08-09,103.110001,104.070000,103.000000,103.900002,102.853920,265500
2018-08-10,103.370003,104.040001,102.160004,102.379997,101.349220,325600
2018-08-13,102.239998,103.470001,100.940002,101.400002,100.379097,227800
2018-08-14,101.889999,102.500000,101.330002,101.980003,100.953262,176500
2018-08-15,101.559998,101.660004,100.059998,101.339996,100.319687,300500
2018-08-16,101.620003,102.160004,101.349998,101.669998,100.646370,276300
2018-08-17,101.680000,102.989998,101.400002,102.760002,101.725403,131800
2018-08-20,102.919998,103.519997,102.599998,102.860001,101.824394,198600
2018-08-21,102.830002,103.849998,102.830002,103.290001,102.250061,209600
2018-08-22,103.320000,103.400002,102.739998,103.180000,102.141167,103300
2018-08-23,103.320000,103.550003,102.760002,102.910004,101.873886,124400
2018-08-24,102.980003,104.139999,102.980003,103.800003,102.754929,127300
2018-08-27,103.790001,104.839996,103.790001,104.540001,103.487480,175400
2018-08-28,104.559998,105.190002,103.809998,103.889999,102.844025,214900
2018-08-29,104.199997,105.169998,103.769997,104.699997,103.645866,199700
2018-08-30,104.860001,105.769997,103.820000,104.699997,103.645866,231900
2018-08-31,104.620003,105.440002,104.379997,104.709999,103.655762,153000
2018-09-04,105.320000,106.500000,104.580002,106.379997,105.308952,323600
2018-09-05,106.279999,108.779999,106.279999,108.180000,107.090836,334100
2018-09-06,108.400002,109.690002,108.129997,108.949997,107.853065,228400
2018-09-07,108.940002,108.940002,107.790001,107.900002,106.813644,258500
2018-09-10,108.389999,109.080002,107.889999,108.559998,107.467003,212400
2018-09-11,108.260002,108.730003,107.540001,108.519997,107.427399,101600
2018-09-12,108.360001,109.629997,108.120003,109.389999,108.288643,154700
2018-09-13,108.750000,110.900002,108.669998,110.820000,109.704247,273900
2018-09-14,110.769997,112.160004,109.790001,111.970001,110.842667,424200
2018-09-17,112.300003,112.309998,110.910004,111.300003,110.179413,564500
2018-09-18,111.199997,111.790001,109.970001,111.589996,110.466492,202600
2018-09-19,111.669998,111.900002,110.529999,111.129997,110.011131,204300
2018-09-20,111.279999,111.510002,110.190002,110.489998,109.377563,204500
2018-09-21,110.169998,110.849998,109.669998,110.320000,109.209290,473200
2018-09-24,110.199997,111.470001,109.989998,110.379997,109.268669,352400
2018-09-25,110.750000,110.959999,108.620003,108.760002,107.664993,279000
2018-09-26,108.660004,109.489998,108.370003,108.599998,107.506599,629100
2018-09-27,108.599998,109.190002,108.160004,108.339996,107.249214,255600
2018-09-28,108.209999,108.889999,107.550003,107.739998,106.655258,416900
2018-10-01,108.050003,109.199997,107.370003,107.769997,106.684952,208600
2018-10-02,107.930000,108.610001,107.599998,108.150002,107.061134,210300
2018-10-03,108.510002,108.629997,107.529999,108.000000,106.912643,361200
2018-10-04,107.790001,107.790001,106.300003,107.089996,106.011795,273300
2018-10-05,107.169998,107.639999,106.959999,107.169998,106.091003,220800
2018-10-08,107.120003,107.849998,106.839996,107.669998,106.585960,164700
2018-10-09,107.389999,107.389999,105.680000,105.720001,104.655594,277500
2018-10-10,105.300003,105.769997,102.120003,102.419998,101.388817,456000
2018-10-11,102.370003,103.459999,101.459999,101.570000,100.547371,312700
2018-10-12,102.680000,103.360001,100.339996,101.650002,100.626579,399100
2018-10-15,101.669998,102.959999,101.050003,102.150002,101.121536,239600
2018-10-16,102.660004,105.769997,102.660004,105.599998,104.536812,231300
2018-10-17,106.089996,106.089996,104.419998,105.019997,103.962646,180900
2018-10-18,104.730003,105.239998,103.830002,104.269997,103.220192,439900
2018-10-19,104.589996,105.209999,104.279999,104.320000,103.269691,271800
2018-10-22,104.610001,104.739998,103.050003,103.970001,102.923218,199300
2018-10-23,102.730003,104.570000,101.720001,103.680000,102.636139,479500
2018-10-24,103.629997,103.820000,99.879997,100.080002,99.072380,498300
2018-10-25,100.879997,101.970001,100.510002,101.290001,100.270203,299800
2018-10-26,100.449997,101.050003,99.309998,100.360001,99.349564,423800
2018-10-29,101.320000,102.070000,99.139999,100.160004,99.151581,271300
2018-10-30,100.040001,101.410004,99.339996,101.370003,100.691200,318600
2018-10-31,102.430000,103.070000,101.849998,101.959999,101.277245,417100
2018-11-01,102.690002,103.470001,102.389999,103.180000,102.489067,392600
2018-11-02,97.050003,105.330002,95.059998,103.800003,103.104927,959300
2018-11-05,103.989998,104.480003,101.250000,101.879997,101.197777,481500
2018-11-06,101.639999,104.769997,101.489998,104.099998,103.402916,381300
2018-11-07,104.879997,105.260002,103.339996,105.110001,104.406151,340200
2018-11-08,104.949997,105.769997,104.599998,105.129997,104.426018,368400
2018-11-09,104.959999,105.800003,103.129997,104.290001,103.591644,227100
2018-11-12,104.160004,104.349998,101.580002,101.769997,101.088509,343100
2018-11-13,102.330002,103.459999,101.540001,102.379997,101.694427,225200
2018-11-14,103.040001,103.910004,101.709999,102.080002,101.396439,163200
2018-11-15,101.550003,104.830002,101.209999,104.790001,104.088287,261000
2018-11-16,104.190002,107.150002,104.190002,106.279999,105.568314,235400
2018-11-19,106.199997,106.650002,104.709999,105.180000,104.475685,192700
2018-11-20,104.620003,105.430000,103.370003,104.309998,103.611504,246800
2018-11-21,104.680000,105.190002,103.150002,103.500000,102.806931,221600
2018-11-23,103.000000,104.419998,102.980003,103.900002,103.204254,75400
2018-11-26,104.720001,104.989998,102.949997,103.690002,102.995659,231700
2018-11-27,103.300003,103.320000,102.089996,102.300003,101.614967,213400
2018-11-28,102.800003,104.070000,101.680000,104.029999,103.333374,327800
2018-11-29,103.720001,104.930000,103.690002,103.849998,103.154579,238400
2018-11-30,103.660004,104.550003,103.250000,104.050003,103.353249,330400
2018-12-03,105.230003,105.510002,102.449997,104.459999,103.760506,292000
2018-12-04,104.860001,104.860001,102.830002,102.940002,102.250687,273100
2018-12-06,102.000000,102.000000,98.349998,101.629997,100.949448,302900
2018-12-07,100.889999,102.849998,99.099998,99.769997,99.101906,226100
2018-12-10,99.430000,99.860001,98.220001,99.110001,98.446335,161100
2018-12-11,100.099998,101.019997,98.279999,98.669998,98.009277,192600
2018-12-12,100.099998,100.940002,99.750000,99.930000,99.260834,240900
2018-12-13,100.419998,101.269997,99.510002,100.320000,99.648232,167800
2018-12-14,100.040001,100.959999,99.129997,100.339996,99.668091,187100
2018-12-17,99.839996,100.650002,98.040001,98.639999,97.979477,313900
2018-12-18,99.430000,100.269997,97.269997,97.940002,97.284164,231000
2018-12-19,98.279999,98.839996,95.269997,95.589996,94.949898,268300
2018-12-20,95.510002,96.150002,93.669998,95.010002,94.373787,248100
2018-12-21,94.760002,96.610001,93.510002,93.550003,92.923561,588800
2018-12-24,92.860001,92.860001,89.669998,89.699997,89.099335,168300
2018-12-26,89.720001,92.010002,89.720001,91.769997,91.155472,394400
2018-12-27,90.699997,92.480003,90.010002,92.370003,91.751465,467500
2018-12-28,92.599998,93.910004,92.050003,92.699997,92.079247,437400
2018-12-31,92.820000,94.070000,92.660004,94.070000,93.440079,246900
2019-01-02,92.730003,92.730003,89.449997,90.180000,89.576126,517500
2019-01-03,88.970001,90.209999,88.260002,89.089996,88.493423,637200
2019-01-04,90.099998,91.900002,89.290001,91.070000,90.460167,433600
2019-01-07,90.599998,93.489998,90.580002,91.949997,91.334267,525400
2019-01-08,92.820000,94.099998,91.760002,93.519997,92.893761,379600
2019-01-09,93.860001,94.199997,93.209999,93.480003,92.854034,195700
2019-01-10,93.139999,94.820000,93.129997,94.580002,93.946663,205800
2019-01-11,94.669998,94.750000,93.430000,94.730003,94.095665,248200
2019-01-14,94.279999,94.849998,93.739998,93.959999,93.330811,210500
2019-01-15,93.970001,95.400002,93.900002,94.809998,94.175117,213900
2019-01-16,94.820000,95.349998,94.389999,94.709999,94.075790,187100
2019-01-17,94.389999,96.169998,94.379997,95.930000,95.287621,265500
2019-01-18,96.099998,97.970001,95.879997,97.690002,97.035835,237400
2019-01-22,97.419998,98.250000,95.120003,96.440002,95.794205,304000
2019-01-23,96.699997,97.769997,96.250000,97.379997,96.727905,266300
2019-01-24,97.250000,98.059998,96.709999,97.129997,96.479584,135300
2019-01-25,97.910004,98.349998,97.070000,97.389999,96.737846,116300
2019-01-28,97.389999,98.510002,97.279999,97.879997,97.224564,217900
2019-01-29,97.419998,98.419998,97.419998,97.940002,97.623276,161600
2019-01-30,98.099998,98.800003,97.620003,97.959999,97.643204,292500
2019-01-31,98.000000,99.279999,97.239998,99.120003,98.799461,346500
2019-02-01,99.330002,99.980003,99.050003,99.550003,99.228065,269600
2019-02-04,99.419998,99.889999,98.519997,99.849998,99.527092,137200
2019-02-05,99.949997,101.129997,99.419998,101.070000,100.743149,288000
2019-02-06,100.620003,102.000000,100.580002,101.589996,101.261467,206800
2019-02-07,101.129997,102.040001,100.839996,101.949997,101.620300,202100
2019-02-08,101.570000,102.309998,100.959999,101.389999,101.062111,184300
2019-02-11,101.879997,102.449997,101.239998,101.699997,101.371109,239100
2019-02-12,102.300003,102.690002,101.739998,102.320000,101.989105,230000
2019-02-13,102.709999,103.510002,102.260002,102.800003,102.467560,229700
2019-02-14,102.239998,103.029999,101.559998,101.769997,101.440880,234000
2019-02-15,102.320000,102.459999,101.349998,101.940002,101.610336,235800
2019-02-19,101.839996,102.029999,101.260002,101.550003,101.221596,378800
2019-02-20,101.470001,102.660004,101.309998,102.260002,101.929306,282100
2019-02-21,102.300003,104.000000,100.639999,103.120003,102.786522,508600
2019-02-22,102.480003,103.550003,101.239998,102.050003,101.719986,303400
2019-02-25,102.269997,102.599998,101.110001,101.559998,101.231560,336100
2019-02-26,101.209999,101.669998,100.930000,101.309998,100.982368,302500
2019-02-27,102.019997,102.300003,100.790001,101.410004,101.082054,375300
2019-02-28,101.260002,102.050003,100.970001,101.730003,101.401016,311500
2019-03-01,102.209999,102.209999,100.690002,100.809998,100.483986,245900
2019-03-04,101.250000,102.150002,100.629997,101.610001,101.281403,324000
2019-03-05,101.680000,102.269997,101.330002,101.470001,101.141853,211000
2019-03-06,101.529999,102.019997,100.430000,100.489998,100.165024,127500
2019-03-07,100.199997,100.629997,99.360001,99.879997,99.556992,151600
2019-03-08,99.209999,100.620003,99.209999,100.470001,100.145088,146300
2019-03-11,100.599998,102.070000,100.570000,102.019997,101.690071,175300
2019-03-12,102.059998,102.910004,102.050003,102.260002,101.929306,176700
2019-03-13,102.500000,103.339996,102.089996,102.279999,101.949234,287600
2019-03-14,102.339996,103.040001,101.809998,102.889999,102.557266,169400
2019-03-15,102.919998,103.580002,102.580002,103.050003,102.716751,278600
2019-03-18,103.220001,103.839996,102.849998,103.709999,103.374611,132800
2019-03-19,104.220001,104.589996,103.239998,103.599998,103.264969,188800
2019-03-20,103.419998,104.830002,102.860001,103.949997,103.613831,181300
2019-03-21,103.570000,105.680000,103.570000,105.540001,105.198692,194000
2019-03-22,105.260002,105.260002,103.500000,103.830002,103.494225,213200
2019-03-25,103.550003,104.970001,103.019997,104.510002,104.172028,163900
2019-03-26,105.000000,106.379997,104.699997,105.440002,105.099022,262300
2019-03-27,105.519997,106.489998,105.129997,105.519997,105.178757,179500
2019-03-28,105.760002,106.389999,105.419998,106.190002,105.846596,129900
2019-03-29,106.099998,106.680000,105.470001,106.389999,106.045944,337900
2019-04-01,106.910004,107.820000,106.209999,107.709999,107.361671,234000
2019-04-02,107.800003,107.800003,106.660004,107.220001,106.873260,194600
2019-04-03,107.610001,108.080002,107.160004,107.470001,107.122452,201200
2019-04-04,107.680000,108.160004,107.290001,108.099998,107.750412,164000
2019-04-05,107.570000,108.959999,107.570000,108.739998,108.388344,161400
2019-04-08,108.650002,109.269997,107.989998,108.989998,108.637535,149600
2019-04-09,108.389999,108.559998,107.519997,108.160004,107.810226,183400
2019-04-10,108.220001,109.300003,107.949997,109.040001,108.687378,166200
2019-04-11,109.290001,109.860001,108.980003,109.660004,109.305374,228900
2019-04-12,109.949997,110.699997,109.790001,110.309998,109.953262,185900
2019-04-15,110.339996,110.500000,109.489998,109.889999,109.534622,190500
2019-04-16,109.809998,109.970001,108.760002,109.620003,109.265503,197600
2019-04-17,109.680000,109.750000,107.589996,107.699997,107.351707,150500
2019-04-18,107.930000,108.379997,107.300003,108.209999,107.860054,214600
2019-04-22,108.250000,109.370003,108.250000,108.930000,108.577728,165800
2019-04-23,109.029999,110.529999,109.029999,110.059998,109.704071,220800
2019-04-24,109.970001,110.860001,109.940002,109.940002,109.584465,152200
2019-04-25,109.209999,109.970001,108.830002,109.449997,109.096046,132400
2019-04-26,109.709999,111.650002,109.699997,111.419998,111.059677,138900
2019-04-29,111.379997,111.720001,110.760002,111.320000,110.959999,137600
2019-04-30,110.750000,111.809998,109.930000,111.239998,111.239998,277600
2019-05-01,112.269997,114.660004,111.550003,112.809998,112.809998,336100
2019-05-02,112.809998,113.120003,111.620003,113.000000,113.000000,345200
2019-05-03,113.300003,114.139999,112.730003,113.849998,113.849998,310200
2019-05-06,112.540001,115.519997,112.540001,115.019997,115.019997,263000
2019-05-07,113.980003,114.680000,113.139999,113.970001,113.970001,159500
2019-05-08,113.779999,114.480003,113.309998,113.989998,113.989998,169400
2019-05-09,113.379997,113.790001,112.760002,113.000000,113.000000,259300
2019-05-10,112.720001,113.709999,112.180000,113.599998,113.599998,225100
2019-05-13,111.910004,113.169998,111.290001,112.800003,112.800003,160100
2019-05-14,113.389999,114.360001,112.889999,112.980003,112.980003,132600
2019-05-15,112.760002,113.769997,112.360001,113.239998,113.239998,116500
2019-05-16,113.379997,114.500000,113.260002,114.110001,114.110001,218800
2019-05-17,113.489998,114.459999,113.489998,113.779999,113.779999,151800
2019-05-20,113.190002,113.809998,112.830002,113.040001,113.040001,175600
2019-05-21,113.510002,113.889999,113.089996,113.480003,113.480003,156300
2019-05-22,113.769997,113.980003,113.000000,113.150002,113.150002,146800
2019-05-23,112.540001,113.690002,112.040001,112.959999,112.959999,119600
2019-05-24,113.290001,113.870003,112.750000,112.930000,112.930000,117700
2019-05-28,113.040001,113.620003,112.690002,112.900002,112.900002,259200
2019-05-29,112.540001,113.440002,112.279999,112.699997,112.699997,188200
2019-05-30,112.730003,113.629997,112.540001,113.510002,113.510002,128700
2019-05-31,112.529999,113.730003,111.500000,113.269997,113.269997,247400
2019-06-03,113.410004,115.000000,113.410004,114.029999,114.029999,297400
2019-06-04,114.699997,115.980003,113.680000,115.720001,115.720001,483400
2019-06-05,115.900002,117.180000,115.410004,117.129997,117.129997,392000
2019-06-06,117.209999,120.389999,117.209999,120.230003,120.230003,319800
2019-06-07,120.000000,122.599998,119.919998,121.919998,121.919998,427800
2019-06-10,122.190002,123.279999,121.629997,123.220001,123.220001,253200
2019-06-11,124.000000,124.449997,121.209999,122.580002,122.580002,365600
2019-06-12,122.989998,122.989998,121.190002,121.620003,121.620003,273400
2019-06-13,121.500000,122.099998,120.309998,120.720001,120.720001,166500
2019-06-14,120.459999,120.510002,119.570000,120.089996,120.089996,187300
2019-06-17,120.040001,120.839996,119.790001,120.169998,120.169998,136300
2019-06-18,120.589996,120.699997,119.379997,119.489998,119.489998,208300
2019-06-19,119.629997,120.000000,118.820000,119.410004,119.410004,340200
2019-06-20,120.889999,121.000000,118.279999,119.809998,119.809998,335100
2019-06-21,119.320000,119.849998,117.430000,119.379997,119.379997,603600
2019-06-24,119.500000,119.500000,118.480003,118.779999,118.779999,187700
2019-06-25,119.000000,121.790001,118.879997,121.059998,121.059998,300700
2019-06-26,121.239998,121.250000,119.099998,119.239998,119.239998,236700
2019-06-27,119.389999,121.809998,119.389999,121.550003,121.550003,247700
2019-06-28,121.620003,124.750000,121.620003,124.339996,124.339996,831100
2019-07-01,125.000000,126.199997,123.120003,124.269997,124.269997,322000
2019-07-02,124.370003,124.709999,123.220001,123.540001,123.540001,402400
2019-07-03,124.000000,125.919998,124.000000,125.919998,125.919998,188600
2019-07-05,125.209999,125.260002,123.010002,124.610001,124.610001,255300
